nm,%T
1100,89.55420853
1099,89.59649078
1098,89.63425228
1097,89.56328206
1096,89.60618757
1095,89.54472355
1094,89.505351
1093,89.42439281
1092,89.46887985
1091,89.44251449
1090,89.38610226
1089,89.32540624
1088,89.32293812
1087,89.26002415
1086,89.25303644
1085,89.16060362
1084,89.11565428
1083,89.04078907
1082,89.02172388
1081,88.89902544
1080,88.80041594
1079,88.81288951
1078,88.71539693
1077,88.63127564
1076,88.61841947
1075,88.52847845
1074,88.43394518
1073,88.38264614
1072,88.29538407
1071,88.20800505
1070,88.20191207
1069,88.12862617
1068,88.1087419
1067,88.0750706
1066,88.01404885
1065,87.90063248
1064,87.84033836
1063,87.8288103
1062,87.75522822
1061,87.68150589
1060,87.63124866
1059,87.54130168
1058,87.51288474
1057,87.4605089
1056,87.3166369
1055,87.33453254
1054,87.25714519
1053,87.206328
1052,87.17842126
1051,87.11842194
1050,87.05766207
1049,87.05044589
1048,86.92906331
1047,86.87103584
1046,86.76428655
1045,86.74950393
1044,86.70596977
1043,86.62255711
1042,86.66445295
1041,86.56672748
1040,86.5611465
1039,86.56712613
1038,86.50475889
1037,86.4830505
1036,86.48046179
1035,86.40661662
1034,86.36524314
1033,86.39627139
1032,86.37021486
1031,86.37757354
1030,86.38712087
1029,86.38214817
1028,86.41895293
1027,86.41875394
1026,86.42293276
1025,86.38533067
1024,86.37956248
1023,86.33203935
1022,86.28493971
1021,86.18982521
1020,86.14438999
1019,86.18446698
1018,86.21265107
1017,86.31434913
1016,86.45219015
1015,86.64110848
1014,86.79505846
1013,86.95849204
1012,87.12343702
1011,87.28768992
1010,87.46514088
1009,87.63447717
1008,87.77947924
1007,87.95509459
1006,88.12679988
1005,88.30961675
1004,88.44147968
1003,88.57068429
1002,88.61576684
1001,88.69823951
1000,88.74297831
999,88.81738861
998,88.89984423
997,89.04550474
996,89.17702912
995,89.2900364
994,89.43180578
993,89.54946591
992,89.64622373
991,89.76933335
990,89.82247136
989,89.90565305
988,89.99119109
987,90.05752348
986,90.14839522
985,90.190958
984,90.27614387
983,90.31086459
982,90.34871914
981,90.33915001
980,90.34601471
979,90.37202213
978,90.40490622
977,90.45821216
976,90.39616371
975,90.43842699
974,90.43946821
973,90.42051994
972,90.41989534
971,90.36057795
970,90.31044869
969,90.29610145
968,90.25348905
967,90.17704503
966,90.13614916
965,90.07764014
964,90.00880586
963,89.91351998
962,89.86550103
961,89.7869047
960,89.72407712
959,89.62125062
958,89.54802256
957,89.42418691
956,89.290242
955,89.16861067
954,89.04324939
953,88.905576
952,88.75156093
951,88.58128988
950,88.41989605
949,88.21653593
948,88.00574019
947,87.74512561
946,87.48951318
945,87.19227313
944,86.88423868
943,86.54440571
942,86.20709291
941,85.79579444
940,85.37918404
939,84.92860684
938,84.42673611
937,83.95972356
936,83.51413745
935,83.09138538
934,82.71951892
933,82.37245315
932,82.13778744
931,81.93170639
930,81.7801683
929,81.68851478
928,81.63962478
927,81.58118325
926,81.61349944
925,81.56822279
924,81.54437342
923,81.51865397
922,81.49988576
921,81.45298416
920,81.42973098
919,81.38268235
918,81.33341356
917,81.26227938
916,81.22205998
915,81.19475954
914,81.27968279
913,81.45110866
912,81.76133989
911,82.19814183
910,82.69666583
909,83.20434383
908,83.73634491
907,84.22984471
906,84.73034993
905,85.17850238
904,85.5876299
903,85.94369075
902,86.32011296
901,86.662657
900,87.02900134
899,87.3516273
898,87.63165222
897,87.8925369
896,88.10549591
895,88.31754738
894,88.47121671
893,88.62086812
892,88.76811547
891,88.83395543
890,88.9289163
889,88.99671982
888,89.03422854
887,89.05083581
886,89.05186105
885,89.0520661
884,89.0551419
883,89.04837528
882,89.0489904
881,89.09616276
880,89.18277876
879,89.24419983
878,89.31018727
877,89.39886396
876,89.47526638
875,89.56555059
874,89.64932005
873,89.73502745
872,89.8170941
871,89.89820081
870,89.97420128
869,90.04052115
868,90.09879859
867,90.15150889
866,90.21380486
865,90.24995624
864,90.32895792
863,90.36349087
862,90.40053486
861,90.4234348
860,90.44779838
859,90.46696067
858,90.48591867
857,90.46175312
856,90.50342189
855,90.48883564
854,90.49071089
853,90.49487823
852,90.4923778
851,90.49779549
850,90.47946001
849,90.49154434
848,90.49362801
847,90.47404342
846,90.47987668
845,90.4694604
844,90.4455075
843,90.44509099
842,90.43801051
841,90.41427413
840,90.42072814
839,90.40553071
838,90.4003267
837,90.43280463
836,90.38679768
835,90.3726464
834,90.37202213
833,90.36557159
832,90.38887893
831,90.36931701
830,90.35287995
829,90.35662484
828,90.34747093
827,90.36515545
826,90.35766511
825,90.37347877
824,90.39096024
823,90.37098169
822,90.35683289
821,90.36619582
820,90.38679768
819,90.38430023
818,90.39220904
817,90.35059148
816,90.37951365
815,90.37285449
814,90.36016182
813,90.38742205
812,90.35932958
811,90.38034608
810,90.37868123
809,90.38513271
808,90.39803703
807,90.41531507
806,90.41031867
805,90.43551165
804,90.4325964
803,90.42634975
802,90.46883546
801,90.47966834
800,90.50154639
799,90.49446149
798,90.50446386
797,90.50633943
796,90.49946254
795,90.48237677
794,90.477585
793,90.49133598
792,90.49091925
791,90.50112961
790,90.48862728
789,90.46654406
788,90.48341849
787,90.45425478
786,90.47029366
785,90.45487962
784,90.42468405
783,90.41156774
782,90.40490622
781,90.42301838
780,90.37680831
779,90.38367588
778,90.32188653
777,90.33498983
776,90.32084667
775,90.26491967
774,90.21712852
773,90.19531923
772,90.1539999
771,90.11539694
770,90.06498894
769,90.00942762
768,89.96985074
767,89.88309121
766,89.86446642
765,89.78773167
764,89.74825227
763,89.6906146
762,89.67079084
761,89.67306209
760,89.63817379
759,89.63920579
758,89.64477881
757,89.64354033
756,89.64849436
755,89.63012457
754,89.61877433
753,89.62063154
752,89.59917276
751,89.57359401
750,89.5500845
749,89.54596066
748,89.54740399
747,89.55750789
746,89.57936922
745,89.59772861
744,89.65097147
743,89.70238703
742,89.75383207
741,89.78731818
740,89.81378518
739,89.87377833
738,89.91000048
737,89.96881493
736,89.99471377
735,90.00030889
734,90.0324358
733,90.06581847
732,90.09527184
731,90.09464949
730,90.11933949
729,90.12452733
728,90.13199833
727,90.12120708
726,90.12847028
725,90.14133796
724,90.13780955
723,90.12950793
722,90.10398525
721,90.12701759
720,90.11000214
719,90.09029313
718,90.08884106
717,90.10066576
716,90.11186953
715,90.0890485
714,90.09879859
713,90.10460767
712,90.11830196
711,90.10170308
710,90.13158326
709,90.10585252
708,90.11207702
707,90.11456695
706,90.10730486
705,90.11975451
704,90.10481514
703,90.09527184
702,90.08220331
701,90.09361224
700,90.08241073
699,90.08448498
698,90.08054395
697,90.05856031
696,90.06457417
695,90.05379099
694,90.03824059
693,90.04466776
692,90.04383842
691,90.04466776
690,90.02891164
689,90.02165646
688,90.03036275
687,90.02310745
686,90.0154382
685,89.9959571
684,89.97730893
683,89.98663253
682,89.97233674
681,89.95617901
680,89.96550042
679,89.94727278
678,89.93733199
677,89.94209515
676,89.95825035
675,89.93608947
674,89.91186373
673,89.92076645
672,89.90979346
671,89.91372702
670,89.88350513
669,89.89716582
668,89.893026
667,89.8661218
666,89.88122855
665,89.88060768
664,89.85515548
663,89.85556928
662,89.82453962
661,89.81957587
660,89.80675412
659,89.80654733
658,89.79352068
657,89.76623288
656,89.76230577
655,89.71312813
654,89.72056504
653,89.71478073
652,89.70156084
651,89.69722349
650,89.67966969
649,89.67615935
648,89.67058437
647,89.65406796
646,89.63507785
645,89.62723528
644,89.61918704
643,89.6193934
642,89.62434609
641,89.60041063
640,89.59339628
639,89.58163815
638,89.57153153
637,89.54740399
636,89.52864261
635,89.53956909
634,89.54224937
633,89.53791972
632,89.53730122
631,89.53338413
630,89.53214719
629,89.53791972
628,89.53029181
627,89.52596274
626,89.54657923
625,89.5001988
624,89.48330169
623,89.50184747
622,89.48103525
621,89.47114598
620,89.46681977
619,89.47155801
618,89.46269977
617,89.44663357
616,89.42048066
615,89.4186276
614,89.3943354
613,89.40380446
612,89.39639381
611,89.36860935
610,89.34309642
609,89.35667497
608,89.34597654
607,89.32869717
606,89.32211543
605,89.32849149
604,89.31553418
603,89.2953821
602,89.26947897
601,89.27338452
600,89.25550263
599,89.25098134
598,89.21995503
597,89.20680806
596,89.21707896
595,89.17559177
594,89.18154667
593,89.15547127
592,89.14992866
591,89.13802349
590,89.12057913
589,89.10929342
588,89.10703645
587,89.07318875
586,89.05985834
585,89.03853383
584,89.03525359
583,89.02418367
582,88.95553992
581,88.97356659
580,88.9362882
579,88.91888332
578,88.90946562
577,88.89186131
576,88.85298041
575,88.84275142
574,88.80839065
573,88.78385537
572,88.76443642
571,88.74461303
570,88.73133179
569,88.67740996
568,88.66760951
567,88.63250013
566,88.57557902
565,88.5641584
564,88.54397197
563,88.50687358
562,88.46612405
561,88.4534955
560,88.4606243
559,88.38305315
558,88.36148378
557,88.34073331
556,88.3189709
555,88.27993404
554,88.27830788
553,88.25513833
552,88.22974012
551,88.15906998
550,88.11584291
549,88.1162487
548,88.07283983
547,88.03695239
546,87.99601397
545,87.94760152
544,87.9257335
543,87.88525152
542,87.84883368
541,87.80171522
540,87.77301164
539,87.72270196
538,87.68655339
537,87.62862558
536,87.58747368
535,87.54130168
534,87.47118297
533,87.4262801
532,87.37315135
531,87.31482743
530,87.25212241
529,87.17661466
528,87.11300597
527,87.06507932
526,87.00696104
525,86.91325199
524,86.82644105
523,86.76328765
522,86.69858311
521,86.61098944
520,86.53703281
519,86.46652391
518,86.36902162
517,86.28513839
516,86.20649742
515,86.11008145
514,86.01971513
513,85.90194554
512,85.81831833
511,85.71838895
510,85.61187328
509,85.50194615
508,85.39491292
507,85.2719118
506,85.16908863
505,85.02546192
504,84.91824303
503,84.75981497
502,84.64162644
501,84.47165439
500,84.3231846
499,84.16121566
498,83.97171053
497,83.79131381
496,83.58685789
495,83.379445
494,83.1771432
493,82.94877945
492,82.72847144
491,82.44797625
490,82.21082378
489,81.918313
488,81.64470046
487,81.38755465
486,81.03954612
485,80.72406065
484,80.40721128
483,80.06486948
482,79.67847255
481,79.28116075
480,78.93561555
479,78.52916868
478,78.14334542
477,77.76281973
476,77.38860176
475,77.00625445
474,76.65403135
473,76.28901367
472,75.96980296
471,75.6740539
470,75.39976634
469,75.15519397
468,74.84520806
467,74.48863227
466,74.08443959
465,73.61545488
464,73.07704877
463,72.47930162
462,71.82175283
461,71.03281076
460,70.10629242
459,69.12020221
458,68.06220269
457,66.94189465
456,65.77623333
455,64.57776348
454,63.32249232
453,62.09362292
452,60.88271344
451,59.78262767
450,58.85576378
449,58.06160007
448,57.34994424
447,56.61154402
446,55.83120483
445,55.03829859
444,54.33741827
443,53.86504165
442,53.58361379
441,53.47687245
440,53.48290641
439,53.58102286
438,53.75043706
437,53.84296904
436,53.86466957
435,53.76083433
434,53.46369862
433,53.08221052
432,52.5887684
431,51.91418017
430,51.13602905
429,50.22084318
428,49.226278
427,48.17236851
426,47.06390947
425,45.9182153
424,44.7601981
423,43.58088046
422,42.37580876
421,41.21022636
420,40.07301325
419,39.00829785
418,37.99207378
417,37.00905535
416,36.07422419
415,35.20716049
414,34.38357262
413,33.58226621
412,32.79457447
411,31.98497385
410,31.21662879
409,30.44563244
408,29.68110054
407,28.89861306
406,28.11408801
405,27.29631366
404,26.4691503
403,25.60583838
402,24.73472009
401,23.8027974
400,22.8594091
