nm,%T
1100,77.64991774
1099,77.62292431
1098,77.56217874
1097,77.40374972
1096,77.29403865
1095,77.15143353
1094,77.05254717
1093,76.91003341
1092,76.74445389
1091,76.69852287
1090,76.55895555
1089,76.52335456
1088,76.33979687
1087,76.22211582
1086,76.05241336
1085,75.98904736
1084,75.82737119
1083,75.78094209
1082,75.61500757
1081,75.58001956
1080,75.44717796
1079,75.37980333
1078,75.2292964
1077,75.14913742
1076,75.05178055
1075,74.96956657
1074,74.83969346
1073,74.77096746
1072,74.63748553
1071,74.54216462
1070,74.44319428
1069,74.32809463
1068,74.24034818
1067,74.18532438
1066,74.03669098
1065,73.97738917
1064,73.81047497
1063,73.79161238
1062,73.65275561
1061,73.62799938
1060,73.49537328
1059,73.44817345
1058,73.32549442
1057,73.25259258
1056,73.13866013
1055,73.09337241
1054,72.93684949
1053,72.87003867
1052,72.77898593
1051,72.71884963
1050,72.62648073
1049,72.58084165
1048,72.44159434
1047,72.34941102
1046,72.24253882
1045,72.20113089
1044,72.06875175
1043,71.98284377
1042,71.95069611
1041,71.81530347
1040,71.74225115
1039,71.65887735
1038,71.54511729
1037,71.42528796
1036,71.32979896
1035,71.24838097
1034,71.11938624
1033,71.06078487
1032,70.95516266
1031,70.83778941
1030,70.73184719
1029,70.61305481
1028,70.53213011
1027,70.39956895
1026,70.31662214
1025,70.18931435
1024,70.10822955
1023,70.0059575
1022,69.92814375
1021,69.78595081
1020,69.72491604
1019,69.64388665
1018,69.58634085
1017,69.48803008
1016,69.42645656
1015,69.36046563
1014,69.30889901
1013,69.24365757
1012,69.22452748
1011,69.15618063
1010,69.14089548
1009,69.12434037
1008,69.12243042
1007,69.10683447
1006,69.18787626
1005,69.21799258
1004,69.27730746
1003,69.34050496
1002,69.44036581
1001,69.50579258
1000,69.62304284
999,69.71721019
998,69.86183682
997,69.96583153
996,70.17089245
995,70.2636975
994,70.45210927
993,70.62264842
992,70.81740359
991,70.97820303
990,71.21656132
989,71.38681403
988,71.62011269
987,71.8252258
986,72.07837717
985,72.3024477
984,72.59471423
983,72.84671967
982,73.16611579
981,73.41587851
980,73.79195221
979,74.11173833
978,74.50990334
977,74.88382161
976,75.29306906
975,75.70786517
974,76.16404483
973,76.65826753
972,77.20261305
971,77.66833587
970,78.23336308
969,78.68663984
968,79.2302452
967,79.64967352
966,80.19051452
965,80.56121361
964,80.97295713
963,81.3291063
962,81.65898924
961,81.91567231
960,82.17240538
959,82.34855825
958,82.52698897
957,82.62243688
956,82.69876044
955,82.73151932
954,82.7517144
953,82.77534509
952,82.76181379
951,82.70904381
950,82.67857828
949,82.58743918
948,82.5298394
947,82.45500076
946,82.37340151
945,82.2890408
944,82.21688152
943,82.08409229
942,82.02476598
941,81.93359296
940,81.86871994
939,81.758516
938,81.65880121
937,81.56221284
936,81.48768875
935,81.38586806
934,81.25292426
933,81.1302847
932,81.02573886
931,80.93921723
930,80.83677892
929,80.74079104
928,80.66200259
927,80.58830102
926,80.53543337
925,80.46184745
924,80.40184227
923,80.37037598
922,80.36963574
921,80.38240576
920,80.41017365
919,80.48111786
918,80.49650045
917,80.5766115
916,80.65197373
915,80.77909811
914,80.91424758
913,81.04234518
912,81.22299509
911,81.35795056
910,81.59245488
909,81.77376616
908,82.02929896
907,82.18678652
906,82.50513894
905,82.67286724
904,82.98603216
903,83.13846466
902,83.4854899
901,83.64846966
900,83.97867149
899,84.12692211
898,84.42090432
897,84.59486467
896,84.81682281
895,84.99316462
894,85.20910428
893,85.37466253
892,85.55846809
891,85.65919723
890,85.80488232
889,85.92192531
888,86.06270657
887,86.12138391
886,86.25971124
885,86.33780436
884,86.43706264
883,86.50694995
882,86.58247577
881,86.66584983
880,86.740316
879,86.79625758
878,86.84383629
877,86.92245823
876,86.97791646
875,87.03842026
874,87.10418067
873,87.12604498
872,87.18002716
871,87.24609546
870,87.26337384
869,87.29894594
868,87.33694571
867,87.35243184
866,87.39830298
865,87.39025367
864,87.41239106
863,87.44379552
862,87.43916466
861,87.46755767
860,87.48044831
859,87.47601694
858,87.48790158
857,87.48467847
856,87.51086971
855,87.48991609
854,87.45789093
853,87.47440558
852,87.46352973
851,87.4480239
850,87.41943595
849,87.42446836
848,87.40333418
847,87.38844268
846,87.38140029
845,87.37576678
844,87.32970638
843,87.34217449
842,87.31683795
841,87.27744017
840,87.28246441
839,87.25332785
838,87.23685494
837,87.23444453
836,87.20391843
835,87.19267467
834,87.18966319
833,87.15714587
832,87.15493835
831,87.13567504
830,87.14329959
829,87.1294555
828,87.10919494
827,87.10538407
826,87.09274923
825,87.07570513
824,87.07610613
823,87.08031673
822,87.04102567
821,87.05505616
820,87.05164854
819,87.04423244
818,87.05325211
817,87.01878196
816,87.05245032
815,87.03721778
814,87.04062483
813,87.05525661
812,87.03821984
811,87.04282946
810,87.03701737
809,87.04463329
808,87.05064633
807,87.06728457
806,87.05385345
805,87.07630663
804,87.04904281
803,87.05746161
802,87.07209622
801,87.07169523
800,87.07650713
799,87.0841265
798,87.05906528
797,87.08713433
796,87.05986713
795,87.05425435
794,87.01096796
793,87.01537577
792,87.01597685
791,87.02319017
790,87.04182735
789,87.02739822
788,87.03180687
787,87.01076761
786,86.99974907
785,86.98252288
784,86.9693051
783,86.9628972
782,86.96189601
781,86.91505313
780,86.93186562
779,86.90564756
778,86.8856391
777,86.90484714
776,86.90604778
775,86.84743574
774,86.82884019
773,86.8268409
772,86.8182445
771,86.82064341
770,86.7928601
769,86.78246863
768,86.7936595
767,86.76368721
766,86.76009123
765,86.7457088
764,86.75849306
763,86.72913202
762,86.74371143
761,86.76089032
760,86.74950393
759,86.74910444
758,86.78826372
757,86.78466672
756,86.79545817
755,86.82384206
754,86.83803749
753,86.85923499
752,86.9018456
751,86.93947234
750,86.9755132
749,87.03361047
748,87.0570607
747,87.13968787
746,87.16356808
745,87.22580777
744,87.2675935
743,87.32970638
742,87.4041392
741,87.42789057
740,87.45487029
739,87.51046671
738,87.5477522
737,87.58162523
736,87.60058371
735,87.63669684
734,87.67484363
733,87.703919
732,87.71583461
731,87.74411541
730,87.7584613
729,87.76896964
728,87.78412811
727,87.77927712
726,87.79787406
725,87.80393913
724,87.82759691
723,87.83022595
722,87.81364411
721,87.83042818
720,87.85004737
719,87.83427077
718,87.82840584
717,87.85065422
716,87.84721546
715,87.84033836
714,87.84762002
713,87.85146336
712,87.85045193
711,87.83973158
710,87.8686593
709,87.84762002
708,87.87655033
707,87.87432459
706,87.86987326
705,87.86258976
704,87.86521984
703,87.86036437
702,87.85550916
701,87.86785001
700,87.85793673
699,87.86542216
698,87.85834133
697,87.84175419
696,87.83730451
695,87.83872029
694,87.83083266
693,87.81101558
692,87.82274351
691,87.81910364
690,87.79908704
689,87.78776653
688,87.80757837
687,87.78271321
686,87.78675585
685,87.77361796
684,87.76977802
683,87.78513877
682,87.73946865
681,87.71644053
680,87.76290698
679,87.7748306
678,87.73361005
677,87.73320602
676,87.73482214
675,87.74714604
674,87.72674184
673,87.70896779
672,87.69240885
671,87.6962454
670,87.65526358
669,87.7010918
668,87.66999868
667,87.67242112
666,87.6633373
665,87.66293359
664,87.63992556
663,87.64900696
662,87.62499375
661,87.61006449
660,87.59312084
659,87.5939276
658,87.5842469
657,87.56186437
656,87.56246923
655,87.52719283
654,87.55218721
653,87.5495665
652,87.52034078
651,87.51308625
650,87.50119818
649,87.50039227
648,87.48830448
647,87.47259285
646,87.46191861
645,87.46594647
644,87.45809231
643,87.43272215
642,87.43956734
641,87.43393008
640,87.43976867
639,87.41943595
638,87.42104629
637,87.39347331
636,87.38421718
635,87.39146102
634,87.38904634
633,87.38904634
632,87.38341234
631,87.36912776
630,87.38482081
629,87.37838229
628,87.37958948
627,87.36087998
626,87.3779799
625,87.34338117
624,87.34177226
623,87.34921372
622,87.34941485
621,87.32548372
620,87.33392925
619,87.32548372
618,87.33453254
617,87.30598169
616,87.31824534
615,87.29673482
614,87.28768992
613,87.29191076
612,87.29572979
611,87.29733785
610,87.27924886
609,87.28125857
608,87.28588106
607,87.27342099
606,87.27040672
605,87.27663632
604,87.28045468
603,87.24247949
602,87.24448834
601,87.24408657
600,87.2609627
599,87.22761539
598,87.21777435
597,87.2059264
596,87.20110735
595,87.18946243
594,87.17480809
593,87.18223533
592,87.16537442
591,87.16718079
590,87.1461088
589,87.160959
588,87.14149371
587,87.13126113
586,87.11059898
585,87.10037002
584,87.08693381
583,87.12082914
582,87.02940212
581,87.08011622
580,87.00836344
579,87.04302989
578,87.00395598
577,87.02699744
576,86.97270949
575,87.00195267
574,86.94687952
573,86.97451187
572,86.91765485
571,86.91205125
570,86.89204131
569,86.88363851
568,86.88383857
567,86.87063578
566,86.85403512
565,86.83023972
564,86.81444637
563,86.80665071
562,86.78746438
561,86.79046196
560,86.79525831
559,86.76288809
558,86.76049077
557,86.73472383
556,86.7441109
555,86.73672099
554,86.74191384
553,86.71874818
552,86.72114434
551,86.6718367
550,86.65447592
549,86.66844409
548,86.65886567
547,86.63133361
546,86.60321205
545,86.60261382
544,86.62016367
543,86.59822692
542,86.57250816
541,86.55098206
540,86.54500353
539,86.52248814
538,86.52547657
537,86.51093384
536,86.501572
535,86.5147187
534,86.48862645
533,86.46951041
532,86.45318547
531,86.4277088
530,86.4434318
529,86.42094282
528,86.39547565
527,86.37916469
526,86.38672305
525,86.36882275
524,86.34675083
523,86.31971544
522,86.31892041
521,86.31415038
520,86.29745736
519,86.28811863
518,86.27758892
517,86.25673199
516,86.24799344
515,86.21801106
514,86.23826292
513,86.18506232
512,86.17494204
511,86.17514047
510,86.15450668
509,86.13486949
508,86.13605949
507,86.10373685
506,86.11999581
505,86.06429192
504,86.09104907
503,86.04725095
502,86.04388279
501,86.02565737
500,86.02506313
499,86.00288103
498,85.98090262
497,85.95220055
496,85.94448232
495,85.92667366
494,85.93221374
493,85.88869419
492,85.89007857
491,85.87465395
490,85.86219763
489,85.83669747
488,85.81456394
487,85.79164594
486,85.76340201
485,85.745236
484,85.74898736
483,85.72312605
482,85.71009964
481,85.66294482
480,85.69352344
479,85.62823652
478,85.6605779
477,85.61956164
476,85.60733944
475,85.56851597
474,85.57777682
473,85.54192122
472,85.51927295
471,85.47852117
470,85.49151238
469,85.46572873
468,85.4230355
467,85.39550281
466,85.37544886
465,85.32946054
464,85.30392218
463,85.26445099
462,85.27151911
461,85.23677314
460,85.23971716
459,85.21263597
458,85.19085952
457,85.13712885
456,85.15163671
455,85.12771966
454,85.08049344
453,85.05679223
452,85.03955913
451,85.00862665
450,84.97692274
449,84.96831385
448,84.93760286
447,84.90944457
446,84.89849665
445,84.85315601
444,84.8336201
443,84.83733157
442,84.7711354
441,84.77699138
440,84.72391191
439,84.71962017
438,84.70167525
437,84.6576093
436,84.6022669
435,84.60090328
434,84.50939644
433,84.5216565
432,84.47126539
431,84.45940158
430,84.392723
429,84.41137992
428,84.31289468
427,84.33114559
426,84.23779689
425,84.22208721
424,84.18893196
423,84.15346449
422,84.06534507
421,84.08993175
420,84.02799482
419,84.01967552
418,83.93498169
417,83.903485
416,83.83859662
415,83.84496736
414,83.77800224
413,83.75794242
412,83.69894811
411,83.66021956
410,83.5955193
409,83.58435587
408,83.49183381
407,83.48202979
406,83.41016878
405,83.38462884
404,83.2967391
403,83.26183921
402,83.2062597
401,83.17292981
400,83.08392404
