nm,%T
1100,88.58536929
1099,88.65454393
1098,88.69292955
1097,88.72275112
1096,88.73562243
1095,88.64637892
1094,88.57251978
1093,88.59189675
1092,88.54070995
1091,88.57517111
1090,88.49220159
1089,88.49138655
1088,88.41704578
1087,88.40930978
1086,88.31368365
1085,88.31551382
1084,88.21470782
1083,88.27261655
1082,88.1509506
1081,88.07263703
1080,88.03695239
1079,88.0205342
1078,87.91055057
1077,87.85692523
1076,87.78331959
1075,87.77927712
1074,87.67383425
1073,87.61167834
1072,87.53928599
1071,87.52678975
1070,87.49394524
1069,87.42728664
1068,87.34619684
1067,87.31522953
1066,87.23966717
1065,87.14109241
1064,87.03842026
1063,86.99654394
1062,86.85363515
1061,86.79705701
1060,86.66984103
1059,86.61398093
1058,86.4830505
1057,86.41835597
1056,86.21781253
1055,86.15113432
1054,85.99199012
1053,85.90056097
1052,85.80587019
1051,85.7300348
1050,85.62803936
1049,85.56260531
1048,85.38980072
1047,85.28860283
1046,85.18595568
1045,85.08950555
1044,84.99903595
1043,84.90709847
1042,84.88364101
1041,84.83401077
1040,84.83440145
1039,84.79827153
1038,84.77425854
1037,84.77972431
1036,84.83244808
1035,84.86605217
1034,84.88422737
1033,84.96342282
1032,85.01900148
1031,85.08010163
1030,85.16477434
1029,85.21008529
1028,85.36738929
1027,85.41733157
1026,85.5364063
1025,85.53680021
1024,85.62232174
1023,85.65485811
1022,85.72450776
1021,85.68405277
1020,85.76004495
1019,85.80606776
1018,85.88276142
1017,85.92509085
1016,86.02030934
1015,86.13328284
1014,86.25077379
1013,86.37518688
1012,86.52129279
1011,86.63213151
1010,86.77747318
1009,86.90944969
1008,87.03401127
1007,87.13948723
1006,87.3264891
1005,87.40051667
1004,87.57618046
1003,87.70351511
1002,87.82961924
1001,87.90447814
1000,88.01384619
999,88.04343943
998,88.15176251
997,88.20313063
996,88.36392533
995,88.3979106
994,88.51196859
993,88.57190794
992,88.66924285
991,88.71580548
990,88.78773967
989,88.82127438
988,88.91601696
987,88.96885472
986,89.0354586
985,89.03381852
984,89.12755646
983,89.09882977
982,89.16655751
981,89.12960873
980,89.14192329
979,89.13576579
978,89.17189583
977,89.16820004
976,89.16183543
975,89.14992866
974,89.12057913
973,89.10354852
972,89.1372025
971,89.07195817
970,89.09226496
969,89.0196741
968,89.03894387
967,88.95635924
966,88.98299107
965,88.92850677
964,88.91274123
963,88.86648448
962,88.87405584
961,88.85195746
960,88.82393316
959,88.74154795
958,88.71989109
957,88.62719411
956,88.53907899
955,88.43699963
954,88.3277159
953,88.21064547
952,88.0807492
951,87.92087468
950,87.76108827
949,87.56871967
948,87.32709233
947,87.07530413
946,86.78047041
945,86.45000048
944,86.11761626
943,85.69352344
942,85.26346935
941,84.77542975
940,84.24962956
939,83.66137537
938,83.0596315
937,82.45613992
936,81.89454984
935,81.30776064
934,80.78914277
933,80.3376271
932,79.98066302
931,79.71150336
930,79.5080313
929,79.42733664
928,79.40521025
927,79.46008037
926,79.57176658
925,79.73187918
924,79.86086318
923,80.0976916
922,80.32671377
921,80.57531277
920,80.81816771
919,81.10096093
918,81.32517378
917,81.57423318
916,81.78657095
915,82.03704338
914,82.26895863
913,82.53896144
912,82.86821803
911,83.18844379
910,83.5724242
909,83.90039394
908,84.28416721
907,84.51951573
906,84.86585676
905,85.00784369
904,85.2905667
903,85.33004998
902,85.54566368
901,85.58270322
900,85.77860912
899,85.76517932
898,85.92904794
897,85.93063082
896,86.06211207
895,86.09303142
894,86.24124153
893,86.33740676
892,86.54440571
891,86.65268017
890,86.85483508
889,87.00315465
888,87.2067296
887,87.31965276
886,87.50663828
885,87.65445625
884,87.79039438
883,87.90812155
882,88.02864157
881,88.11746608
880,88.24599413
879,88.32039445
878,88.4009638
877,88.51176479
876,88.56375055
875,88.64372546
874,88.69231688
873,88.73214904
872,88.77097706
871,88.84438798
870,88.89104259
869,88.90844202
868,88.94673277
867,88.95082901
866,88.97950799
865,89.01311513
864,89.03566361
863,89.05575708
862,89.05473179
861,89.08939301
860,89.10006072
859,89.08262379
858,89.08734168
857,89.07872659
856,89.10518988
855,89.09452156
854,89.08446989
853,89.09082898
852,89.07975215
851,89.06211412
850,89.05391157
849,89.05924314
848,89.03443355
847,89.0215189
846,88.99712966
845,88.99815429
844,88.98053241
843,88.98135196
842,88.95574475
841,88.92543534
840,88.92768772
839,88.89575033
838,88.89411283
837,88.87692085
836,88.84336513
835,88.82106986
834,88.82127438
833,88.79796233
832,88.80205172
831,88.79653108
830,88.76177942
829,88.75932687
828,88.78038009
827,88.75094786
826,88.75094786
825,88.75421762
824,88.76259695
823,88.77302111
822,88.76648032
821,88.77015946
820,88.79898466
819,88.77813145
818,88.80041594
817,88.78876188
816,88.79325976
815,88.80205172
814,88.8294555
813,88.83068273
812,88.81493453
811,88.81452552
810,88.81759312
809,88.81248052
808,88.83743281
807,88.83477363
806,88.84438798
805,88.853185
804,88.85052535
803,88.8405012
802,88.86382442
801,88.84234229
800,88.84643372
799,88.88653976
798,88.84070577
797,88.86648448
796,88.84950242
795,88.83313725
794,88.81697959
793,88.81697959
792,88.83927383
791,88.80593681
790,88.83272816
789,88.80736821
788,88.80266514
787,88.77874471
786,88.80021147
785,88.76954626
784,88.76300572
783,88.72418118
782,88.73214904
781,88.70130309
780,88.67414302
779,88.636786
778,88.64311313
777,88.63250013
776,88.59536465
775,88.5496808
774,88.502594
773,88.46653145
772,88.4280402
771,88.36209416
770,88.29396093
769,88.23644454
768,88.1487179
767,88.0543874
766,87.99155648
765,87.92735317
764,87.87027792
763,87.7956503
762,87.75684475
761,87.75219731
760,87.74411541
759,87.72613584
758,87.75583441
757,87.76250282
756,87.75745095
755,87.77563904
754,87.80798274
753,87.79383091
752,87.82254129
751,87.82961924
750,87.85834133
749,87.85894824
748,87.85591375
747,87.89860852
746,87.89982289
745,87.93140246
744,87.94071656
743,87.97595705
742,88.00351117
741,88.00655075
740,88.00817191
739,88.04952147
738,88.04749408
737,88.0576315
736,88.04952147
735,88.05621219
734,88.03127662
733,88.0424258
732,88.03451987
731,88.03958769
730,88.0432367
729,88.03796596
728,88.05235989
727,88.04100674
726,88.04952147
725,88.06209234
724,88.06128126
723,88.05012969
722,88.04668313
721,88.06209234
720,88.03350634
719,88.02762811
718,88.02033153
717,88.02661466
716,88.02620928
715,88.00776662
714,87.9982428
713,87.99135387
712,87.99256953
711,87.92958026
710,87.95003163
709,87.9231016
708,87.905895
707,87.88504916
706,87.87614565
705,87.84337231
704,87.79383091
703,87.792618
702,87.75805716
701,87.73158993
700,87.67585303
699,87.65950219
698,87.6377058
697,87.5683164
696,87.53404542
695,87.49636282
694,87.45386344
693,87.40212667
692,87.35645466
691,87.29934797
690,87.24730082
689,87.19408006
688,87.13447122
687,87.05365301
686,86.99393986
685,86.89584284
684,86.7932598
683,86.68780372
682,86.56832211
681,86.47488637
680,86.33879837
679,86.25017799
678,86.09659975
677,85.97278589
676,85.84005753
675,85.67931782
674,85.48757544
673,85.35186201
672,85.14928391
671,84.97790108
670,84.76352322
669,84.65897383
668,84.45667898
667,84.26340412
666,84.09806436
665,83.91140637
664,83.71301814
663,83.54356429
662,83.36370345
661,83.19629765
660,83.00839181
659,82.90047138
658,82.73761543
657,82.58021324
656,82.45651965
655,82.27710458
654,82.1826233
653,82.08201326
652,81.97680728
651,81.90944816
650,81.87531804
649,81.8540175
648,81.86457283
647,81.92416055
646,81.99946144
645,82.12889884
644,82.27274734
643,82.44474897
642,82.63118863
641,82.83311622
640,83.0340077
639,83.23442813
638,83.44340161
637,83.61688796
636,83.79189262
635,83.98698673
634,84.15811511
633,84.29988846
632,84.43801204
631,84.52924696
630,84.64786329
629,84.73912983
628,84.81975233
627,84.87132844
626,84.92899795
625,84.9739878
624,85.00510341
623,85.02350416
622,85.04484618
621,85.0485669
620,85.0701111
619,85.04621696
618,85.06168863
617,85.0266366
616,85.03133547
615,84.99199041
614,84.98533682
613,84.94757782
612,84.92293592
611,84.90455693
610,84.86859256
609,84.82326789
608,84.79963833
607,84.76430393
606,84.72664313
605,84.69562945
604,84.6823692
603,84.64747348
602,84.61785264
601,84.60655269
600,84.58609971
599,84.57207768
598,84.57344083
597,84.56448337
596,84.59564382
595,84.58571018
594,84.605189
593,84.62311348
592,84.65156665
591,84.70167525
590,84.71240273
589,84.74849606
588,84.76313287
587,84.80569156
586,84.80569156
585,84.83596417
584,84.8285415
583,84.87777766
582,84.817604
581,84.86468431
580,84.81467456
579,84.84084786
578,84.79514751
577,84.80530101
576,84.76313287
575,84.78733794
574,84.69933489
573,84.68412412
572,84.63675422
571,84.61473526
570,84.5635098
569,84.54248323
568,84.49733271
567,84.43529013
566,84.37096181
565,84.32609707
564,84.27077734
563,84.22771133
562,84.17594487
561,84.12750324
560,84.09264253
559,84.02219057
558,83.9614635
557,83.93053665
556,83.86736533
555,83.81041671
554,83.79440085
553,83.74000838
552,83.70299541
551,83.62227911
550,83.54394902
549,83.51279137
548,83.44820514
547,83.39845401
546,83.33242114
545,83.29923251
544,83.24726996
543,83.17771777
542,83.11453893
541,83.03286055
540,82.98125524
539,82.89245458
538,82.84913911
537,82.78792547
536,82.72904291
535,82.66049468
534,82.58858018
533,82.52128841
532,82.4498747
531,82.37700535
530,82.30818025
529,82.22843032
528,82.12662957
527,82.05555741
526,81.96906854
525,81.86721187
524,81.74722143
523,81.64601642
522,81.5334839
521,81.42673105
520,81.30794786
519,81.17045866
518,81.04738372
517,80.89189324
516,80.76291766
515,80.60221933
514,80.50206114
513,80.31302796
512,80.15045646
511,80.00902904
510,79.83824836
509,79.66489719
508,79.50290539
507,79.32699445
506,79.16076819
505,78.94143196
504,78.78780475
503,78.58451913
502,78.4149735
501,78.18438062
500,78.00043056
499,77.78717509
498,77.57593166
497,77.35457422
496,77.12727722
495,76.89232626
494,76.67309599
493,76.41436351
492,76.1903555
491,75.90807884
490,75.66586479
489,75.38518414
488,75.12993273
487,74.82315211
486,74.54628408
485,74.25744462
484,73.96171962
483,73.62833845
482,73.33039089
481,72.96406138
480,72.64989651
479,72.30810833
478,71.95019909
477,71.57213954
476,71.21967705
475,70.84790296
474,70.48439884
473,70.08450334
472,69.69650492
471,69.28783638
470,68.87791625
469,68.46711053
468,68.04574918
467,67.58277185
466,67.15092509
465,66.69127188
464,66.23629016
463,65.79092614
462,65.34825574
461,64.84432891
460,64.35184458
459,63.83340336
458,63.31082896
457,62.75740827
456,62.21025765
455,61.64984656
454,61.05876277
453,60.45594304
452,59.81636256
451,59.15412027
450,58.48062427
449,57.80388123
448,57.09065162
447,56.35351371
446,55.59093774
445,54.81040359
444,54.01122159
443,53.19992255
442,52.33051394
441,51.47756552
440,50.55743125
439,49.65385824
438,48.68329897
437,47.7241278
436,46.6905511
435,45.69008858
434,44.59405858
433,43.53203804
432,42.41847002
431,41.34071656
430,40.20869704
429,39.13451897
428,38.00651072
427,36.97336686
426,35.91972475
425,34.98895727
424,34.05783209
423,33.21934003
422,32.37725308
421,31.63319074
420,30.84807016
419,30.10571874
418,29.32189269
417,28.57301045
416,27.8007172
415,27.06643143
414,26.30383066
413,25.56601268
412,24.81812685
411,24.08867987
410,23.34785567
409,22.61585443
408,21.86865131
407,21.14749836
406,20.41672128
405,19.69549952
404,18.96561805
403,18.26274268
402,17.55205617
401,16.85411683
400,16.15425745
