nm,%T
1100.00708,82.08630371
1099.00769,82.57386017
1098.007568,82.43000793
1097.006714,82.19333649
1096.005005,81.10380554
1095.002686,82.95156097
1093.999512,81.14757538
1092.995605,82.25347137
1091.990845,81.44516754
1090.985352,81.75153351
1090.008789,82.30543518
1089.001831,81.73188019
1087.994263,81.15097046
1086.985718,82.70705414
1086.006226,82.19684601
1084.996094,81.65708923
1083.985474,82.09407043
1083.003784,82.83501434
1081.991455,81.74091339
1081.008423,81.9503479
1079.994751,81.03147888
1079.010132,81.7506485
1077.994995,82.25183105
1077.009033,81.66983795
1075.99231,80.46722412
1075.005005,81.36222076
1073.986694,81.93455505
1072.997925,82.35422516
1072.008301,81.42675018
1070.988037,80.62232208
1069.996948,82.27389526
1069.005371,81.72272491
1068.012939,82.78270721
1066.989624,81.80356598
1065.99585,81.06658936
1065.001221,80.90516663
1064.005981,81.3738327
1063.01001,81.24410248
1062.013428,80.50930023
1060.98584,80.15260315
1059.987793,80.35813904
1058.989014,80.14263153
1057.989624,80.29528809
1056.989502,80.10083008
1055.98877,80.01869965
1054.987183,79.80634308
1053.984985,79.65958405
1053.012451,79.78128052
1052.008911,79.75026703
1051.004761,79.67827606
1049.999634,79.70457458
1048.994141,79.7193985
1047.987793,79.94553375
1047.01123,79.10188293
1046.003662,79.19574738
1044.995239,79.42343903
1043.986206,79.04077148
1043.00708,79.20372772
1041.996704,79.25449371
1040.985596,79.15813446
1040.004517,79.14241791
1038.991943,79.39372253
1038.009644,78.94166565
1036.99585,79.07024384
1036.012207,79.10240936
1034.99707,79.50701904
1034.012207,79.43761444
1032.995728,79.12580109
1032.009277,79.52471924
1030.991577,79.35702515
1030.004028,79.79595947
1028.984863,79.66422272
1027.996094,79.94280243
1027.00647,79.87921143
1025.985474,80.10835266
1024.994751,80.10113525
1024.003174,80.13806915
1023.01123,80.26125336
1021.987549,80.19023895
1020.99408,80.28032684
1020.000183,80.36107635
1019.005615,80.35758972
1018.010376,80.5809021
1017.014526,80.73673248
1015.986938,80.85188293
1014.989807,80.94559479
1013.992065,81.00906372
1012.993774,81.00559235
1011.99469,81.26130676
1010.995178,81.33380127
1009.994873,81.41684723
1008.994019,81.56251526
1007.992432,81.80362701
1006.990417,81.70445251
1005.98761,81.84540558
1004.984314,81.96763611
1004.011719,82.18435669
1003.007263,82.34144592
1002.001953,82.38790131
1000.996216,82.55888367
999.9896851,82.61932373
999.0140991,82.67866516
998.0065918,82.98163605
996.99823,82.98752594
995.9894409,83.05114746
995.0114746,83.03092957
994.0014038,83.2795105
992.9907837,83.49889374
992.0109863,83.71321106
990.9990845,83.52591705
989.9865723,83.60884857
989.005188,83.70347595
987.9914551,83.89355469
987.0088501,83.9130249
985.9940796,84.02804565
985.0102539,83.92695618
983.9940186,83.93227386
983.0091553,83.87828827
981.9918823,83.9315033
981.0057373,84.12055969
979.9872437,84.1394043
979.000061,84.27071381
978.0122681,84.13630676
976.9921265,84.07590485
976.0031128,84.16474152
975.0134888,84.23610687
973.9915161,84.18990326
973.0009155,84.24394989
972.0096436,84.06678772
970.9857788,84.04014587
969.9934692,84.17019653
969.0006104,84.22803497
968.0070801,84.28170013
967.0130005,84.14155579
965.9862671,84.1301651
964.9910889,83.99040222
963.9953613,83.97524261
962.9990234,83.99082947
962.0022583,83.87229156
961.0047607,84.00476837
960.0067749,83.98505402
959.0083618,83.90684509
958.0092163,83.78174591
957.0095825,83.72237396
956.0093994,83.46484375
955.0085449,83.51032257
954.0072632,83.36412048
953.0055542,83.28445435
952.0031128,83.19146729
951.0001831,82.9879303
949.996582,82.77888489
948.9925537,82.56292725
947.987915,82.44274139
947.0151978,82.1677475
946.0094604,81.92047882
945.0032959,81.68725586
943.996582,81.25363159
942.9892578,80.89633942
942.013855,80.43166351
941.0054932,79.9031601
939.996582,79.44281006
938.9871216,78.86660767
938.0096436,78.38702393
936.9990845,77.81321716
935.9879761,77.24790955
935.0089722,76.64864349
933.9967651,76.2546463
932.9840698,75.86494446
932.00354,75.66042328
930.9898071,75.32022858
930.0083008,75.28826141
928.9933472,75.13233185
928.0108032,75.03384399
926.9949341,75.04611969
926.0112915,75.05752563
924.9943237,75.25259399
924.0097656,75.24353027
922.9916992,75.51065063
922.0061646,75.60046387
920.9870605,75.75156403
920.0004272,75.93830872
919.0133057,76.12466431
917.9926147,76.25804901
917.0043945,76.59667969
916.0157471,76.70989227
914.9936523,76.69648743
914.0038452,76.89613342
913.0136719,77.0382309
911.9899292,77.18011475
910.9987793,77.57646942
910.0070801,77.75888824
909.0149536,78.09978485
907.9891968,78.27610016
906.9959717,78.56184387
906.0022583,78.68631744
905.0081787,78.91075134
904.0134888,78.96874237
902.9851685,79.02047729
901.989563,79.02612305
900.9934082,78.97668457
899.9968262,78.96136475
898.9996338,78.97145081
898.0020752,79.058815
897.0039673,79.03358459
896.0054321,79.08023834
895.0064087,79.1703186
894.0067749,79.08960724
893.0067749,79.17698669
892.0062866,79.24803925
891.0053101,79.42562103
890.0039063,79.54711151
889.00177,79.78629303
887.9993286,80.08157349
886.9963989,80.37789917
885.993042,80.63286591
884.9892578,80.82142639
883.9848022,81.05343628
883.0134277,81.45677185
882.0082397,81.77507782
881.0023804,81.76577759
879.9960938,81.81575012
878.9893188,81.91928864
878.0157471,82.07782745
877.0079956,82.14161682
875.9998779,82.15698242
874.991333,82.30147552
874.0157471,82.35334778
873.0062866,82.53770447
871.9962769,82.46386719
870.9858398,82.58493042
870.0084839,82.63989258
868.9970703,82.73486328
867.9851685,82.71813965
867.0065308,82.70561981
865.9936523,82.82544708
865.0142212,82.80796814
864.0004272,82.89122009
862.9862061,82.88115692
862.0053711,82.9144516
860.9902344,82.84395599
860.0084839,82.94856262
858.9924927,82.94754791
858.0098267,82.84602356
856.9928589,82.88284302
856.0094604,82.8937912
854.991394,82.89550781
854.0071411,82.96433258
852.9883423,82.86766052
852.0030518,82.98348999
850.9833984,82.88759613
849.9971313,82.84627533
849.0106201,82.93463898
847.9894409,82.74944305
847.0020752,82.7893219
846.0142822,82.80952454
844.9918823,82.88482666
844.0030518,82.77534485
843.013855,82.81420135
841.9901123,82.79548645
841.0001221,82.8445816
840.0095825,82.72673798
838.9844971,82.80318451
837.9931641,82.73216248
837.0013428,82.74434662
836.0093384,82.76022339
835.0166016,82.8144989
833.9893799,82.78769684
832.9959106,82.69228363
832.0019531,82.61325836
831.0076294,82.57923126
830.0128784,82.57357788
828.9834595,82.62702179
827.987915,82.75405884
826.9918823,82.71832275
825.9953613,82.67763519
824.9985352,82.64578247
824.0012207,82.68813324
823.0036621,82.90101624
822.0056152,82.75488281
821.0070801,82.69654846
820.0081177,82.67191315
819.008728,82.70902252
818.0089722,82.72044373
817.0087891,82.71064758
816.0082397,82.71196747
815.0072632,82.71334076
814.0057983,82.70104218
813.0039673,82.88227081
812.00177,82.78613281
810.9991455,82.7447052
809.9960327,82.75162506
808.9924927,82.84537506
807.9887085,82.88275909
806.984436,82.7673111
806.0143433,82.85286713
805.0092163,82.82943726
804.0037842,82.92255402
802.9979248,82.85090637
801.9915161,82.95050812
800.9848633,82.89544678
800.0124512,82.93618774
799.0050049,82.94000244
797.9970093,83.04715729
796.9887085,83.01934814
796.0147705,82.99679565
795.0056763,82.97086334
793.9960938,83.04710388
792.986145,83.04666138
792.0107422,83.10708618
791,83.09703827
789.9888916,83.13667297
789.0122681,83.10523224
788.0003052,83.08861542
786.9880371,83.12538147
786.0102539,83.08522797
784.9971924,83.20137787
783.9837036,83.20346069
783.0048828,83.20183563
781.9905396,83.15433502
781.0108643,83.20954895
779.9958496,83.15982819
779.0154419,83.1963501
777.9996948,83.25286865
776.9834595,83.21585846
776.0018921,83.21278381
774.9849243,83.13511658
774.0026245,83.25589752
772.9848633,83.24115753
772.0018921,83.17936707
770.9833984,83.12443542
769.9995728,83.15518188
769.0155029,83.10806274
767.9957886,83.06037903
767.0109253,83.07679749
765.9905396,82.96016693
765.0049438,83.0121994
763.9837646,83.02474976
762.9974365,82.96076965
762.0106812,83.06739044
760.9883423,82.94746399
760.0009766,82.98722076
759.0131226,83.08951569
757.9896851,83.15466309
757.0012207,83.20671844
756.0122681,83.34321594
754.9877319,83.32201385
753.9981079,83.34605408
753.0081787,83.43457794
751.9824219,83.56479645
750.9918213,83.60974884
750.0007324,83.57923126
749.0093384,83.67134094
748.0175781,83.81902313
746.9901123,83.84676361
745.9976196,84.00913239
745.0048218,84.07199097
744.0116577,84.16025543
742.982605,84.22983551
741.9887085,84.3500824
740.9945068,84.4041214
739.999939,84.48468781
739.0050659,84.57036591
738.0097656,84.57305908
737.0140991,84.64071655
735.9825439,84.71111298
734.9862061,84.7687149
733.989502,84.76651001
732.9925537,84.79217529
731.9951172,84.81233978
730.9974365,84.85514832
729.9993286,84.85134888
729.0009155,84.85453033
728.0021362,84.89479065
727.0031128,84.878479
726.0036621,84.89835358
725.0038452,84.84170532
724.0037231,84.79776001
723.0032959,84.82441711
722.0024414,84.74787903
721.0013428,84.70623016
719.9998169,84.64580536
718.9979858,84.56912231
717.9957886,84.47899628
716.9932861,84.45129395
715.9904785,84.40795898
714.9872437,84.26261902
713.9837646,84.19863892
713.015686,84.07188416
712.0115356,83.96730042
711.007019,83.86640167
710.0022583,83.74652863
708.9970093,83.65400696
707.9914551,83.54290009
706.9855957,83.41841125
706.0153809,83.28582764
705.0088501,83.19301605
704.0020142,83.10360718
702.994812,82.97708893
701.9873047,82.82668304
701.0154419,82.80186462
700.0073242,82.64952087
698.9987793,82.64253998
697.9899902,82.56790924
697.0169678,82.51722717
696.0074463,82.37124634
694.9976196,82.28283691
693.9874878,82.18821716
693.0130615,82.11706543
692.0023193,81.97068024
690.991272,81.91625214
690.0159302,81.91867828
689.0042114,81.83456421
687.9921875,81.75687408
687.0159302,81.66378021
686.0032349,81.52710724
684.9902344,81.50922394
684.0130615,81.38321686
682.9994507,81.27987671
681.9854126,81.1649704
681.0073853,81.10083008
679.9927368,80.97662354
679.0140381,80.92679596
677.9988403,80.82257843
676.9832153,80.68322754
676.0036621,80.55139923
674.9874268,80.45920563
674.0072632,80.34442902
672.9904785,80.1971817
672.0096436,80.102005
670.9922485,80.02733612
670.0108032,80.03755188
668.9927979,79.97441864
668.0106812,79.94974518
666.9920654,79.98814392
666.0094604,79.97753906
664.9901733,79.92285156
664.006958,79.9178772
662.9870605,79.84960938
662.0032959,79.88869476
660.9827271,79.83028412
659.9983521,79.92920685
659.0137329,79.90616608
657.9921875,79.97652435
657.007019,80.05583954
655.9849243,80.02692413
654.9990845,80.06115723
654.0130005,80.03461456
652.9900513,80.19221497
652.0032959,80.16802979
651.0163574,80.21826172
649.9924316,80.27026367
649.0048218,80.40374756
648.0170288,80.36315155
646.9922485,80.34699249
646.0037842,80.36299133
645.0151367,80.39616394
643.9894409,80.4111557
643.000061,80.49704742
642.010498,80.48571014
640.9840088,80.40605927
639.9938965,80.49356079
639.0033569,80.45453644
638.0126343,80.53521729
636.9849854,80.54795074
635.9936523,80.55903625
635.0020752,80.55574036
634.0102539,80.58306885
633.0180664,80.5517807
631.9889526,80.62312317
630.9962769,80.54615021
630.0032959,80.5914917
629.0100708,80.55098724
628.0164795,80.55489349
626.9858398,80.53369904
625.9918213,80.57589722
624.9974365,80.52987671
624.0028076,80.56217194
623.0079346,80.53040314
622.0127563,80.49194336
621.0172729,80.52632141
619.9846191,80.48023224
618.9886475,80.48405457
617.9923706,80.47431946
616.9958496,80.49563599
615.9989624,80.47275543
615.0018311,80.48262787
614.0045776,80.46429443
613.006897,80.45111084
612.0090332,80.46982574
611.0108032,80.43010712
610.0123901,80.45835114
609.0136719,80.53096771
608.0147705,80.50998688
607.0154419,80.4285202
606.0159912,80.47084045
605.0162354,80.48934937
604.0161133,80.57526398
603.0158691,80.52101135
602.0152588,80.47653198
601.0144653,80.53742981
600.0133667,80.53552246
599.0119629,80.55098724
598.010376,80.55558014
597.0084229,80.64803314
596.0062866,80.66015625
595.0039673,80.67989349
594.0012817,80.63505554
592.998291,80.64099121
591.9951782,80.7179184
590.9916992,80.66686249
589.987915,80.77729797
588.9840088,80.74357605
588.0169678,80.80542755
587.0125122,80.77282715
586.0078125,80.8482666
585.0027466,80.87647247
583.9974976,80.91810608
582.9920654,80.90180969
581.9862671,80.88761902
581.0175171,81.03323364
580.0112305,81.04305267
579.0047607,81.01821899
577.9979248,80.99567413
576.9909058,81.06723785
575.9836426,81.04430389
575.0134277,81.15211487
574.0056763,81.1565094
572.9976807,81.21060181
571.9893799,81.25370026
571.0181885,81.25020599
570.0093994,81.28704071
569.0004272,81.29561615
567.9910889,81.202034
566.9816284,81.32492065
566.0092773,81.34016418
564.9992676,81.37876129
563.9890137,81.38344574
563.0159302,81.37745667
562.005188,81.47903442
560.9942627,81.46251678
559.9829712,81.50172424
559.0089722,81.50246429
557.9972534,81.50193024
556.9853516,81.47039795
556.0106201,81.50335693
554.9981689,81.51289368
553.9855347,81.48996735
553.0100708,81.50784302
551.9968872,81.49637604
550.9835205,81.41233063
550.0073853,81.43333435
548.9935303,81.35192108
548.0169678,81.26822662
547.0026245,81.30052185
545.9880371,81.22621918
545.0108032,81.21669769
543.9957886,81.0802002
543.0180664,81.00720978
542.0025635,80.94689941
540.9868164,80.93076324
540.0083618,80.83383179
538.9921875,80.71536255
538.0133667,80.51312256
536.9967041,80.48944092
536.0174561,80.37620544
535.0001831,80.19557953
533.9828491,80.19142914
533.0029297,80.19068146
531.9851074,80.12153625
531.0047607,79.98545074
529.9864502,79.75907898
529.0056152,79.82579041
527.9868164,79.70093536
527.0055542,79.57504272
525.9863281,79.54395294
525.0046387,79.3108139
523.9849854,79.33143616
523.0028687,79.09260559
521.9827271,79.00293732
521.0001221,78.89706421
520.017395,78.8886795
518.996582,78.80990601
518.0134277,78.75817108
516.9922485,78.65091705
516.0085449,78.54434967
514.9868774,78.42067719
514.0028687,78.2820816
513.0185547,78.13755035
511.9961853,78.04993439
511.0115051,78.00214386
509.988739,77.96485901
509.0036621,77.89377594
508.01828,77.75518036
506.994873,77.72842407
506.0091248,77.59864807
504.9852295,77.56425476
503.9990845,77.52335358
503.0126953,77.41171265
501.9881897,77.33595276
501.0014038,77.31639099
500.0144043,77.1931076
498.9892883,77.16595459
498.0018311,77.17002106
497.0142517,77.07710266
495.9884644,77.01664734
495.0003967,77.04367065
494.012207,76.84444427
492.9857483,76.87594604
491.9971313,76.8372345
491.0083313,76.86724091
489.9812317,76.68559265
488.9920349,76.573349
488.002594,76.5274353
487.0129089,76.42014313
485.9850159,76.19665527
484.9949951,76.02450562
484.0047302,76.03217316
483.0143127,75.83198547
481.9856262,75.64753723
480.994751,75.42156982
480.0037537,75.20306396
479.0125122,74.99501801
477.9829712,74.90077209
476.991394,74.65518951
475.9995728,74.52670288
475.0075378,74.21666718
474.0153809,74.01933289
472.9847412,73.78600311
471.992157,73.61928558
470.9994202,73.34239197
470.0064392,73.15161133
469.0132446,72.94100189
467.9816895,72.7769165
466.9881287,72.47839355
465.9943848,72.27714539
465.0004272,72.13788605
464.0063477,71.89647675
463.0119629,71.64746857
462.0174866,71.35383606
460.9845886,71.07434082
459.9896851,70.87088776
458.9945984,70.64530945
457.9993591,70.36946869
457.0038757,70.05532074
456.0082703,69.72597504
455.0124817,69.41876984
454.016449,69.12060547
452.9819031,68.8190155
451.9855957,68.55064392
450.9889221,68.16666412
449.992218,67.88484192
448.9953308,67.56132507
447.99823,67.24383545
447.000946,66.9474411
446.003418,66.53671265
445.0057678,66.09050751
444.0079651,65.69099426
443.0098877,65.25980377
442.0116882,64.91098022
441.0133362,64.55120087
440.0147705,63.9881897
439.0160522,63.67302704
438.0170898,63.30320358
437.0180359,63.00668716
436.0187988,62.62516403
434.9808044,62.1725502
433.9812622,61.82202148
432.9814453,61.49273682
431.9814453,61.07563782
430.9812317,60.65485001
429.980896,60.15812302
429.0189209,59.72816849
428.0181885,59.27010345
427.0173645,58.8171463
426.0163574,58.36296844
425.0151367,57.84087753
424.0137939,57.28606415
423.0122375,56.77040863
422.0105286,56.2612114
421.008606,55.85134125
420.0065613,55.25330734
419.0043335,54.72256088
418.0019531,54.18629074
416.9993286,53.77682495
415.9966125,53.3155899
414.9937134,52.82951736
413.9905701,52.43812943
412.9873657,51.95918274
411.9839172,51.52722549
411.0189514,51.1894989
410.0152283,50.87348938
409.0112915,50.45133972
408.0072327,50.03668213
407.0029602,49.63139725
405.9985352,49.29027176
404.9939575,48.93479538
403.9892578,48.5576973
402.9843445,48.17433167
402.0179138,47.77023697
401.0126953,47.37718582
400.0072937,46.99617386
