nm,%T
1100,89.43860154
1099,89.45157671
1098,89.52019097
1097,89.44766336
1096,89.52369522
1095,89.44642761
1094,89.39968735
1093,89.40030491
1092,89.40133417
1091,89.34865103
1090,89.39021874
1089,89.30792521
1088,89.26002415
1087,89.20454862
1086,89.2538585
1085,89.16470971
1084,89.1058054
1083,89.07195817
1082,88.99856414
1081,88.94591354
1080,88.8818325
1079,88.82843282
1078,88.77526963
1077,88.73991329
1076,88.68312739
1075,88.61576684
1074,88.56109955
1073,88.48507025
1072,88.44901483
1071,88.34825988
1070,88.38753048
1069,88.31734402
1068,88.21308286
1067,88.27973077
1066,88.14404972
1065,88.06087572
1064,87.95691733
1063,87.91642099
1062,87.77301164
1061,87.7206821
1060,87.62559904
1059,87.5477522
1058,87.39367454
1057,87.30578066
1056,87.10618634
1055,87.07370016
1054,86.91725458
1053,86.82144306
1052,86.68081779
1051,86.66884322
1050,86.5525764
1049,86.49659271
1048,86.3230944
1047,86.28871469
1046,86.15986305
1045,86.11206423
1044,86.00505937
1043,85.94606549
1042,85.8274086
1041,85.80646291
1040,85.7981651
1039,85.81120489
1038,85.7434591
1037,85.76735165
1036,85.7837446
1035,85.85349905
1034,85.80626534
1033,85.94369075
1032,85.93696266
1031,86.05874333
1030,86.06349924
1029,86.20093966
1028,86.25375284
1027,86.36146482
1026,86.39050247
1025,86.45557429
1024,86.49480024
1023,86.59882512
1022,86.58646313
1021,86.59065006
1020,86.58108023
1019,86.68021902
1018,86.72513808
1017,86.84263651
1016,86.90024483
1015,87.07690813
1014,87.16617724
1013,87.34257671
1012,87.44359417
1011,87.5812219
1010,87.70412095
1009,87.86724304
1008,87.95955023
1007,88.1205096
1006,88.23583502
1005,88.42641131
1004,88.4848665
1003,88.67353049
1002,88.73460083
1001,88.86198289
1000,88.91581222
999,88.99958878
998,89.05042572
997,89.16799472
996,89.24235042
995,89.36881513
994,89.41203923
993,89.50329008
992,89.56864413
991,89.67677881
990,89.71684651
989,89.79620857
988,89.85929356
987,89.90896536
986,89.9474799
985,89.9706794
984,90.02497304
983,90.02476575
982,90.04342376
981,90.03824059
980,90.02103462
979,90.03036275
978,90.01440187
977,90.04674114
976,90.00175954
975,90.03388696
974,89.99388489
973,89.98766855
972,89.99637155
971,89.9615646
970,89.91144967
969,89.9713009
968,89.91703962
967,89.85908665
966,89.85660379
965,89.81068317
964,89.78587099
963,89.74246617
962,89.7013543
961,89.66149997
960,89.60763186
959,89.5471978
958,89.5203971
957,89.41780402
956,89.36593426
955,89.24419983
954,89.16265664
953,89.03955893
952,88.93198785
951,88.73725702
950,88.62311277
949,88.36168724
948,88.20211516
947,87.92472122
946,87.68978394
945,87.38321113
944,87.11761955
943,86.72174339
942,86.36564087
941,85.88177266
940,85.45707031
939,84.91570116
938,84.4063266
937,83.83434972
936,83.38059694
935,82.78620985
934,82.37719503
933,81.8609914
932,81.60692243
931,81.27706268
930,81.12785622
929,80.96363531
928,80.98395826
927,80.93903087
926,81.0815421
925,81.1172091
924,81.29035123
923,81.41079579
922,81.65974135
921,81.82650465
920,82.0498894
919,82.2267263
918,82.46050687
917,82.62395886
916,82.83750313
915,83.01183229
914,83.24381972
913,83.49260281
912,83.78398254
911,84.08547851
910,84.44073405
909,84.80451993
908,85.09871456
907,85.41025136
906,85.63296864
905,85.87524716
904,86.05180809
903,86.22257724
902,86.29547031
901,86.43785876
900,86.47588195
899,86.53185224
898,86.54161589
897,86.58088087
896,86.56453491
895,86.61876753
894,86.63093466
893,86.71215907
892,86.78686487
891,86.92305867
890,87.06668313
889,87.25071609
888,87.46514088
887,87.68655339
886,87.89395358
885,88.09819288
884,88.26895803
883,88.47529106
882,88.63188788
881,88.77138587
880,88.90762315
879,89.04345442
878,89.18257341
877,89.29743823
876,89.37210766
875,89.46146381
874,89.52884876
873,89.62393335
872,89.67781126
871,89.74473923
870,89.7786354
869,89.83777763
868,89.88578177
867,89.89716582
866,89.9474799
865,89.98435334
864,90.01709636
863,90.04466776
862,90.05814558
861,90.07805497
860,90.10626747
859,90.12535741
858,90.12971546
857,90.12286719
856,90.16002013
855,90.17496865
854,90.13282848
853,90.16562553
852,90.12701759
851,90.17351521
850,90.14071529
849,90.12016952
848,90.13324356
847,90.14652707
846,90.11996202
845,90.13054559
844,90.10523009
843,90.12120708
842,90.08261816
841,90.05669403
840,90.06478155
839,90.05047334
838,90.04632646
837,90.05690139
836,90.02269288
835,90.00030889
834,89.99367767
833,89.99326323
832,89.99201994
831,89.96632904
830,89.94292355
829,89.96757198
828,89.94851546
827,89.97834484
826,89.97233674
825,89.98124544
824,89.97896639
823,89.98994782
822,89.99657877
821,89.97357976
820,90.0224856
819,90.03388696
818,90.04404576
817,90.01336554
816,90.0465338
815,90.05379099
814,90.07038104
813,90.07660309
812,90.08676671
811,90.09423459
810,90.08012912
809,90.10336283
808,90.11539694
807,90.13241341
806,90.14590436
805,90.15150889
804,90.15794414
803,90.15067856
802,90.17891381
801,90.18618167
800,90.19012732
799,90.20944274
798,90.19656533
797,90.20944274
796,90.21795945
795,90.2102736
794,90.21712852
793,90.22585371
792,90.21193535
791,90.22523045
790,90.2204523
789,90.20923502
788,90.20404231
787,90.21962134
786,90.18908897
785,90.1917887
784,90.17102366
783,90.16811694
782,90.15981253
781,90.16126574
780,90.13946996
779,90.11871697
778,90.10025083
777,90.11083209
776,90.09050057
775,90.04881457
774,90.00901312
773,89.96819345
772,89.93898872
771,89.90378994
770,89.85660379
769,89.78525078
768,89.72242436
767,89.66088061
766,89.58452597
765,89.52761188
764,89.47506035
763,89.41450981
762,89.38857212
761,89.37498872
760,89.36758046
759,89.36922669
758,89.40442204
757,89.39351206
756,89.4147157
755,89.40339274
754,89.44292639
753,89.45960989
752,89.46496575
751,89.47691459
750,89.48639239
749,89.48227148
748,89.53482725
747,89.55214649
746,89.56905661
745,89.58988931
744,89.60288642
743,89.6255843
742,89.6753334
741,89.67863722
740,89.68214767
739,89.72366393
738,89.73916
737,89.75155878
736,89.7509388
735,89.74122634
734,89.74535917
733,89.73151494
732,89.74308609
731,89.72655633
730,89.73792021
729,89.73337449
728,89.76313252
727,89.74742566
726,89.78401036
725,89.78070265
724,89.80261846
723,89.82950365
722,89.83922566
721,89.871502
720,89.86901879
719,89.8661218
718,89.86467334
717,89.87398527
716,89.90606709
715,89.87729642
714,89.88143551
713,89.87915899
712,89.87336445
711,89.84956938
710,89.86488027
709,89.8537072
708,89.86550103
707,89.85825902
706,89.85019004
705,89.84708678
704,89.83943252
703,89.8346748
702,89.83591592
701,89.82557377
700,89.82247136
699,89.81543962
698,89.83012417
697,89.79682886
696,89.79724239
695,89.80096425
694,89.78773167
693,89.77470775
692,89.77222722
691,89.77780851
690,89.75011216
689,89.74763231
688,89.75796548
687,89.73440758
686,89.74453259
685,89.7290356
684,89.70651807
683,89.71663993
682,89.69970195
681,89.6641839
680,89.6720297
679,89.68111517
678,89.67615935
677,89.66459682
676,89.67017142
675,89.6627387
674,89.6278544
673,89.64952648
672,89.61526637
671,89.63301395
670,89.56802541
669,89.62702891
668,89.57029406
667,89.55235269
666,89.55132169
665,89.55544578
664,89.53091026
663,89.51689299
662,89.49545905
661,89.46558375
660,89.43510063
659,89.44210259
658,89.41533335
657,89.40030491
656,89.38033951
655,89.32890286
654,89.32273245
653,89.30504631
652,89.28613012
651,89.27544014
650,89.25714679
649,89.27132895
648,89.21605182
647,89.22529654
646,89.22488564
645,89.2203659
644,89.21399757
643,89.2166681
642,89.21502469
641,89.23392581
640,89.22344752
639,89.2078351
638,89.18093062
637,89.19468991
636,89.1663522
635,89.20537023
634,89.16861067
633,89.19900296
632,89.15321313
631,89.17908252
630,89.16512033
629,89.19735987
628,89.15998772
627,89.18298411
626,89.16368317
625,89.13987074
624,89.12550425
623,89.15033922
622,89.13371339
621,89.14623379
620,89.13330292
619,89.13166103
618,89.12304166
617,89.11811667
616,89.11380753
615,89.12078434
614,89.09123926
613,89.11585948
612,89.10518988
611,89.12242602
610,89.08836734
609,89.09636791
608,89.08180331
607,89.06703601
606,89.0524762
605,89.06785635
604,89.03894387
603,89.04283933
602,89.00430227
601,89.02582357
600,89.00163809
599,88.98606448
598,88.96311887
597,88.95328684
596,88.947552
595,88.92215927
594,88.89390814
593,88.8965691
592,88.88039991
591,88.87896734
590,88.84152402
589,88.85072993
588,88.8190247
587,88.80798167
586,88.77302111
585,88.75626129
584,88.75667003
583,88.75585255
582,88.69640141
581,88.693338
580,88.66863034
579,88.64944071
578,88.64025566
577,88.6265819
576,88.58904093
575,88.5908768
574,88.54804967
573,88.55416656
572,88.51278382
571,88.49362792
570,88.46979074
569,88.46754996
568,88.44249791
567,88.4325198
566,88.36921559
565,88.39322922
564,88.32934297
563,88.36107686
562,88.28420286
561,88.31104014
560,88.29152131
559,88.28582913
558,88.22628652
557,88.19764723
556,88.19378875
555,88.16779914
554,88.17348371
553,88.13897589
552,88.14668823
551,88.06716175
550,88.03877682
549,88.02945234
548,88.01810214
547,87.98628883
546,87.95914517
545,87.93484451
544,87.93362966
543,87.90913363
542,87.87756206
541,87.836091
540,87.84074288
539,87.77927712
538,87.76048204
537,87.7517932
536,87.71341096
535,87.69503384
534,87.63245934
533,87.61672182
532,87.58404523
531,87.53344075
530,87.52316214
529,87.47480842
528,87.43775532
527,87.41923466
526,87.37858349
525,87.35645466
524,87.29794088
523,87.2559397
522,87.20391843
521,87.17942495
520,87.13968787
519,87.11200305
518,87.06688361
517,87.02218829
516,86.98432546
515,86.92345897
514,86.89004057
513,86.83143933
512,86.76528547
511,86.73732015
510,86.67682608
509,86.6113883
508,86.57390356
507,86.50416134
506,86.46114847
505,86.38055697
504,86.31375289
503,86.26427963
502,86.18287941
501,86.12713485
500,86.05616732
499,85.99911856
498,85.93003724
497,85.83827866
496,85.75945255
495,85.69036644
494,85.62271604
493,85.54783045
492,85.48088306
491,85.38213299
490,85.31374372
489,85.22872666
488,85.12575955
487,85.02937757
486,84.95109868
485,84.866443
484,84.78519044
483,84.66950095
482,84.58765786
481,84.46776442
480,84.39505489
479,84.27252372
478,84.18583038
477,84.05586079
476,83.95547053
475,83.85133859
474,83.74868566
473,83.61380745
472,83.51932967
471,83.35333868
470,83.2721926
469,83.11626135
468,82.98335705
467,82.80603694
466,82.68619361
465,82.53135967
464,82.39939064
463,82.23278521
462,82.14270495
461,81.9358569
460,81.83159195
459,81.63774498
458,81.49857215
457,81.28005709
456,81.16036659
455,80.95692427
454,80.78914277
453,80.573643
452,80.39888022
451,80.17537502
450,79.96666791
449,79.75299476
448,79.55747665
447,79.30087878
446,79.09954767
445,78.83099351
444,78.60985587
443,78.34152116
442,78.09244133
441,77.8290985
440,77.59504691
439,77.26272121
438,76.99508451
437,76.65509037
436,76.39166925
435,76.03070193
434,75.7146641
433,75.33486251
432,75.01670768
431,74.60827519
430,74.26924346
429,73.82917237
428,73.47862148
427,73.07469309
426,72.73090641
425,72.34524638
424,72.00505725
423,71.60840494
422,71.23722607
421,70.86128115
420,70.55600787
419,70.16701477
418,69.81713126
417,69.40903398
416,69.05227636
415,68.6666721
414,68.28730919
413,67.86392906
412,67.46119035
411,67.03197262
410,66.61530183
409,66.16723703
408,65.72445598
407,65.28133092
406,64.81029526
405,64.33599174
404,63.85986557
403,63.37485811
402,62.89700994
401,62.3777923
400,61.88309126
