nm, %T
1100.000000, 89.818265
1099.000000, 89.874350
1098.000000, 89.853387
1097.000000, 89.758243
1096.000000, 90.041873
1095.000000, 89.815689
1094.000000, 90.003428
1093.000000, 89.945057
1092.000000, 90.006025
1091.000000, 89.886229
1090.000000, 89.980470
1089.000000, 89.893197
1088.000000, 89.954480
1087.000000, 89.795176
1086.000000, 89.838767
1085.000000, 89.725081
1084.000000, 89.712255
1083.000000, 89.615449
1082.000000, 89.693272
1081.000000, 89.568768
1080.000000, 89.609444
1079.000000, 89.464332
1078.000000, 89.422267
1077.000000, 89.436422
1076.000000, 89.312636
1075.000000, 89.277137
1074.000000, 89.326176
1073.000000, 89.175815
1072.000000, 89.194250
1071.000000, 89.070249
1070.000000, 89.002454
1069.000000, 88.943658
1068.000000, 88.991427
1067.000000, 88.856653
1066.000000, 88.820580
1065.000000, 88.690018
1064.000000, 88.585962
1063.000000, 88.529843
1062.000000, 88.407501
1061.000000, 88.351424
1060.000000, 88.263580
1059.000000, 88.099571
1058.000000, 87.967642
1057.000000, 87.827750
1056.000000, 87.725136
1055.000000, 87.606442
1054.000000, 87.495060
1053.000000, 87.291015
1052.000000, 87.254525
1051.000000, 87.115111
1050.000000, 86.990679
1049.000000, 86.914412
1048.000000, 86.836364
1047.000000, 86.745761
1046.000000, 86.577767
1045.000000, 86.514835
1044.000000, 86.387706
1043.000000, 86.289184
1042.000000, 86.203925
1041.000000, 86.094014
1040.000000, 86.026817
1039.000000, 85.997011
1038.000000, 85.954899
1037.000000, 85.986680
1036.000000, 85.972283
1035.000000, 86.015952
1034.000000, 86.048586
1033.000000, 86.104460
1032.000000, 86.119576
1031.000000, 86.257555
1030.000000, 86.248912
1029.000000, 86.413562
1028.000000, 86.416466
1027.000000, 86.570334
1026.000000, 86.552656
1025.000000, 86.694763
1024.000000, 86.692342
1023.000000, 86.806612
1022.000000, 86.772892
1021.000000, 86.889114
1020.000000, 86.803164
1019.000000, 86.937007
1018.000000, 86.928523
1017.000000, 87.096474
1016.000000, 87.154503
1015.000000, 87.309624
1014.000000, 87.372997
1013.000000, 87.561701
1012.000000, 87.601395
1011.000000, 87.809309
1010.000000, 87.903833
1009.000000, 88.074161
1008.000000, 88.132534
1007.000000, 88.319497
1006.000000, 88.370751
1005.000000, 88.604006
1004.000000, 88.644511
1003.000000, 88.857867
1002.000000, 88.929498
1001.000000, 89.065154
1000.000000, 89.144168
999.000000, 89.313833
998.000000, 89.390963
997.000000, 89.578598
996.000000, 89.610630
995.000000, 89.826397
994.000000, 89.894644
993.000000, 90.071490
992.000000, 90.161595
991.000000, 90.286659
990.000000, 90.335484
989.000000, 90.491185
988.000000, 90.502496
987.000000, 90.615424
986.000000, 90.634410
985.000000, 90.761493
984.000000, 90.767499
983.000000, 90.858663
982.000000, 90.870784
981.000000, 90.876505
980.000000, 90.861384
979.000000, 90.955610
978.000000, 90.939806
977.000000, 91.032237
976.000000, 91.058039
975.000000, 91.093956
974.000000, 91.057051
973.000000, 91.074394
972.000000, 91.099029
971.000000, 91.119188
970.000000, 91.082362
969.000000, 91.166779
968.000000, 91.154229
967.000000, 91.148257
966.000000, 91.116007
965.000000, 91.110795
964.000000, 91.101691
963.000000, 91.108092
962.000000, 91.099132
961.000000, 91.072785
960.000000, 91.045849
959.000000, 91.015419
958.000000, 90.911112
957.000000, 90.875101
956.000000, 90.810123
955.000000, 90.705607
954.000000, 90.616114
953.000000, 90.484108
952.000000, 90.368229
951.000000, 90.208692
950.000000, 90.088531
949.000000, 89.881461
948.000000, 89.705616
947.000000, 89.408966
946.000000, 89.174332
945.000000, 88.904482
944.000000, 88.564075
943.000000, 88.208742
942.000000, 87.765835
941.000000, 87.264066
940.000000, 86.756929
939.000000, 86.175483
938.000000, 85.677584
937.000000, 85.063611
936.000000, 84.480103
935.000000, 83.876664
934.000000, 83.422375
933.000000, 82.914613
932.000000, 82.567628
931.000000, 82.201481
930.000000, 82.047614
929.000000, 81.822213
928.000000, 81.824984
927.000000, 81.736430
926.000000, 81.842552
925.000000, 81.899587
924.000000, 82.065100
923.000000, 82.139782
922.000000, 82.411137
921.000000, 82.523552
920.000000, 82.729498
919.000000, 82.858896
918.000000, 83.132143
917.000000, 83.239349
916.000000, 83.454293
915.000000, 83.565592
914.000000, 83.781870
913.000000, 84.003179
912.000000, 84.240441
911.000000, 84.572939
910.000000, 84.838519
909.000000, 85.241652
908.000000, 85.439258
907.000000, 85.823284
906.000000, 85.934722
905.000000, 86.226236
904.000000, 86.241689
903.000000, 86.488474
902.000000, 86.398267
901.000000, 86.617086
900.000000, 86.559103
899.000000, 86.677002
898.000000, 86.589619
897.000000, 86.714453
896.000000, 86.632919
895.000000, 86.762850
894.000000, 86.788606
893.000000, 86.929864
892.000000, 87.021669
891.000000, 87.192425
890.000000, 87.373845
889.000000, 87.656879
888.000000, 87.873866
887.000000, 88.209989
886.000000, 88.467939
885.000000, 88.782544
884.000000, 89.002988
883.000000, 89.277997
882.000000, 89.480186
881.000000, 89.713647
880.000000, 89.923912
879.000000, 90.139354
878.000000, 90.326775
877.000000, 90.457224
876.000000, 90.620067
875.000000, 90.734327
874.000000, 90.811286
873.000000, 90.920155
872.000000, 91.000541
871.000000, 91.080387
870.000000, 91.147294
869.000000, 91.220753
868.000000, 91.300622
867.000000, 91.330409
866.000000, 91.393384
865.000000, 91.470492
864.000000, 91.514226
863.000000, 91.547593
862.000000, 91.601047
861.000000, 91.636949
860.000000, 91.659641
859.000000, 91.716067
858.000000, 91.740774
857.000000, 91.738091
856.000000, 91.759902
855.000000, 91.754430
854.000000, 91.801148
853.000000, 91.801541
852.000000, 91.806205
851.000000, 91.822831
850.000000, 91.800980
849.000000, 91.811500
848.000000, 91.814621
847.000000, 91.826273
846.000000, 91.810899
845.000000, 91.827619
844.000000, 91.824786
843.000000, 91.804807
842.000000, 91.794652
841.000000, 91.793111
840.000000, 91.759235
839.000000, 91.758263
838.000000, 91.755097
837.000000, 91.769113
836.000000, 91.746207
835.000000, 91.743983
834.000000, 91.721470
833.000000, 91.703887
832.000000, 91.701036
831.000000, 91.704211
830.000000, 91.683772
829.000000, 91.660807
828.000000, 91.670468
827.000000, 91.673637
826.000000, 91.688929
825.000000, 91.685761
824.000000, 91.689406
823.000000, 91.706292
822.000000, 91.701699
821.000000, 91.714862
820.000000, 91.732950
819.000000, 91.727800
818.000000, 91.754147
817.000000, 91.757426
816.000000, 91.742525
815.000000, 91.786602
814.000000, 91.785769
813.000000, 91.800263
812.000000, 91.806967
811.000000, 91.816786
810.000000, 91.823012
809.000000, 91.835800
808.000000, 91.856569
807.000000, 91.866029
806.000000, 91.863798
805.000000, 91.887604
804.000000, 91.898998
803.000000, 91.893262
802.000000, 91.926577
801.000000, 91.911448
800.000000, 91.962071
799.000000, 91.930262
798.000000, 91.948129
797.000000, 91.941097
796.000000, 91.986334
795.000000, 91.967147
794.000000, 91.985022
793.000000, 91.968805
792.000000, 91.980511
791.000000, 91.997962
790.000000, 91.984766
789.000000, 92.015553
788.000000, 91.997728
787.000000, 92.012949
786.000000, 91.976136
785.000000, 92.003703
784.000000, 92.008183
783.000000, 91.980422
782.000000, 91.966708
781.000000, 91.974336
780.000000, 91.940535
779.000000, 91.969744
778.000000, 91.921499
777.000000, 91.898067
776.000000, 91.891368
775.000000, 91.874188
774.000000, 91.830740
773.000000, 91.785964
772.000000, 91.732306
771.000000, 91.718682
770.000000, 91.649752
769.000000, 91.602779
768.000000, 91.545708
767.000000, 91.470840
766.000000, 91.406136
765.000000, 91.334735
764.000000, 91.274710
763.000000, 91.237505
762.000000, 91.164346
761.000000, 91.152436
760.000000, 91.141291
759.000000, 91.114104
758.000000, 91.141033
757.000000, 91.154489
756.000000, 91.154395
755.000000, 91.182682
754.000000, 91.191173
753.000000, 91.210867
752.000000, 91.190493
751.000000, 91.213172
750.000000, 91.237250
749.000000, 91.246679
748.000000, 91.243675
747.000000, 91.260031
746.000000, 91.299654
745.000000, 91.309898
744.000000, 91.353040
743.000000, 91.339124
742.000000, 91.405505
741.000000, 91.387433
740.000000, 91.403699
739.000000, 91.422329
738.000000, 91.434536
737.000000, 91.416837
736.000000, 91.428684
735.000000, 91.430487
734.000000, 91.423190
733.000000, 91.392949
732.000000, 91.405479
731.000000, 91.399123
730.000000, 91.411952
729.000000, 91.414007
728.000000, 91.441958
727.000000, 91.444617
726.000000, 91.471388
725.000000, 91.485362
724.000000, 91.502776
723.000000, 91.520288
722.000000, 91.539490
721.000000, 91.563221
720.000000, 91.570038
719.000000, 91.591398
718.000000, 91.602115
717.000000, 91.604000
716.000000, 91.606803
715.000000, 91.616784
714.000000, 91.632244
713.000000, 91.608149
712.000000, 91.615916
711.000000, 91.614820
710.000000, 91.624749
709.000000, 91.623651
708.000000, 91.595134
707.000000, 91.589724
706.000000, 91.578591
705.000000, 91.549786
704.000000, 91.542353
703.000000, 91.526386
702.000000, 91.517199
701.000000, 91.491822
700.000000, 91.468169
699.000000, 91.424582
698.000000, 91.409219
697.000000, 91.355364
696.000000, 91.320924
695.000000, 91.265024
694.000000, 91.210185
693.000000, 91.147623
692.000000, 91.092927
691.000000, 91.022835
690.000000, 90.917904
689.000000, 90.813848
688.000000, 90.717700
687.000000, 90.565264
686.000000, 90.381345
685.000000, 90.179027
684.000000, 89.910846
683.000000, 89.652032
682.000000, 89.332399
681.000000, 88.958075
680.000000, 88.567394
679.000000, 88.114052
678.000000, 87.648668
677.000000, 87.095643
676.000000, 86.588214
675.000000, 86.050102
674.000000, 85.586046
673.000000, 85.092426
672.000000, 84.674256
671.000000, 84.332079
670.000000, 84.088879
669.000000, 83.866629
668.000000, 83.747428
667.000000, 83.626453
666.000000, 83.565440
665.000000, 83.524319
664.000000, 83.505289
663.000000, 83.445345
662.000000, 83.428635
661.000000, 83.410055
660.000000, 83.374717
659.000000, 83.349753
658.000000, 83.321437
657.000000, 83.324117
656.000000, 83.344229
655.000000, 83.381279
654.000000, 83.425709
653.000000, 83.537757
652.000000, 83.631150
651.000000, 83.783022
650.000000, 83.915345
649.000000, 84.127511
648.000000, 84.331213
647.000000, 84.571780
646.000000, 84.804430
645.000000, 85.084230
644.000000, 85.335200
643.000000, 85.597180
642.000000, 85.836002
641.000000, 86.101094
640.000000, 86.318175
639.000000, 86.553708
638.000000, 86.732607
637.000000, 86.957398
636.000000, 87.080038
635.000000, 87.247977
634.000000, 87.363363
633.000000, 87.529096
632.000000, 87.612599
631.000000, 87.726828
630.000000, 87.785121
629.000000, 87.879948
628.000000, 87.922194
627.000000, 88.010842
626.000000, 88.029212
625.000000, 88.107760
624.000000, 88.100034
623.000000, 88.167147
622.000000, 88.161062
621.000000, 88.178248
620.000000, 88.169499
619.000000, 88.201416
618.000000, 88.179869
617.000000, 88.196982
616.000000, 88.174673
615.000000, 88.202553
614.000000, 88.173201
613.000000, 88.171848
612.000000, 88.135713
611.000000, 88.158199
610.000000, 88.136326
609.000000, 88.149228
608.000000, 88.139392
607.000000, 88.194493
606.000000, 88.190899
605.000000, 88.228910
604.000000, 88.242089
603.000000, 88.308035
602.000000, 88.325617
601.000000, 88.397762
600.000000, 88.450492
599.000000, 88.525347
598.000000, 88.561245
597.000000, 88.624817
596.000000, 88.662423
595.000000, 88.728872
594.000000, 88.783085
593.000000, 88.832737
592.000000, 88.897043
591.000000, 88.933248
590.000000, 88.996679
589.000000, 89.010038
588.000000, 89.049020
587.000000, 89.061350
586.000000, 89.110591
585.000000, 89.103867
584.000000, 89.139062
583.000000, 89.143987
582.000000, 89.181643
581.000000, 89.156271
580.000000, 89.176444
579.000000, 89.114453
578.000000, 89.138496
577.000000, 89.105357
576.000000, 89.109347
575.000000, 89.049987
574.000000, 89.007886
573.000000, 88.990307
572.000000, 88.959322
571.000000, 88.899187
570.000000, 88.865522
569.000000, 88.836734
568.000000, 88.772466
567.000000, 88.737994
566.000000, 88.671290
565.000000, 88.630678
564.000000, 88.581240
563.000000, 88.550645
562.000000, 88.468345
561.000000, 88.454014
560.000000, 88.368410
559.000000, 88.360868
558.000000, 88.275948
557.000000, 88.253630
556.000000, 88.184181
555.000000, 88.158590
554.000000, 88.084833
553.000000, 88.026798
552.000000, 87.983059
551.000000, 87.912133
550.000000, 87.831055
549.000000, 87.751850
548.000000, 87.691385
547.000000, 87.611699
546.000000, 87.489404
545.000000, 87.394585
544.000000, 87.265627
543.000000, 87.153879
542.000000, 87.013939
541.000000, 86.861743
540.000000, 86.712284
539.000000, 86.615067
538.000000, 86.500346
537.000000, 86.425307
536.000000, 86.346475
535.000000, 86.317592
534.000000, 86.305453
533.000000, 86.281406
532.000000, 86.236801
531.000000, 86.194984
530.000000, 86.142789
529.000000, 86.086768
528.000000, 85.995588
527.000000, 85.909859
526.000000, 85.781292
525.000000, 85.657740
524.000000, 85.478718
523.000000, 85.361957
522.000000, 85.182971
521.000000, 85.004020
520.000000, 84.796967
519.000000, 84.612134
518.000000, 84.369204
517.000000, 84.136943
516.000000, 83.871167
515.000000, 83.644754
514.000000, 83.364919
513.000000, 83.081661
512.000000, 82.815509
511.000000, 82.528421
510.000000, 82.235447
509.000000, 81.965019
508.000000, 81.702522
507.000000, 81.454186
506.000000, 81.151024
505.000000, 80.914695
504.000000, 80.637593
503.000000, 80.341968
502.000000, 80.069132
501.000000, 79.778194
500.000000, 79.466582
