nm,%T
1100.00708,75.1713562
1099.00769,76.22999573
1098.007568,75.89389801
1097.006714,76.15769196
1096.005005,76.694664
1095.002686,74.75479889
1093.999512,75.05298615
1092.995605,76.86963654
1091.990845,75.72254181
1090.985352,75.82553864
1090.008789,75.38230896
1089.001831,76.60457611
1087.994263,74.99572754
1086.985718,75.6457901
1086.006226,75.02502441
1084.996094,75.22109985
1083.985474,75.67134857
1083.003784,76.09104919
1081.991455,74.96836853
1081.008423,74.57058716
1079.994751,75.57891846
1079.010132,74.80622864
1077.994995,74.0292511
1077.009033,75.69833374
1075.99231,75.01023102
1075.005005,74.58084869
1073.986694,74.66253662
1072.997925,75.74765778
1072.008301,74.80657196
1070.988037,74.28910065
1069.996948,74.07228088
1069.005371,74.74948883
1068.012939,74.38899994
1066.989624,75.13424683
1065.99585,74.52005005
1065.001221,74.83742523
1064.005981,73.9876709
1063.01001,74.17147827
1062.013428,74.21800232
1060.98584,74.14774323
1059.987793,73.36006165
1058.989014,73.6811676
1057.989624,73.07312775
1056.989502,73.28623199
1055.98877,73.52500153
1054.987183,73.21773529
1053.984985,73.64367676
1053.012451,72.85749817
1052.008911,73.30680847
1051.004761,72.87484741
1049.999634,73.18991089
1048.994141,73.02435303
1047.987793,72.87239075
1047.01123,73.10337067
1046.003662,72.80467987
1044.995239,72.53488159
1043.986206,72.65354156
1043.00708,72.8525238
1041.996704,72.63908386
1040.985596,72.52227783
1040.004517,72.26288605
1038.991943,72.45076752
1038.009644,72.37825012
1036.99585,72.55743408
1036.012207,72.6747818
1034.99707,72.61512756
1034.012207,73.16386414
1032.995728,72.85995483
1032.009277,72.3046875
1030.991577,72.91117096
1030.004028,73.07252502
1028.984863,73.08508301
1027.996094,72.96447754
1027.00647,73.08043671
1025.985474,73.32256317
1024.994751,73.17203522
1024.003174,73.16969299
1023.01123,73.44837189
1021.987549,73.38301849
1020.99408,73.33088684
1020.000183,73.40963745
1019.005615,73.42740631
1018.010376,73.45445251
1017.014526,73.74449158
1015.986938,73.64969635
1014.989807,73.77451324
1013.992065,73.85630035
1012.993774,73.9669342
1011.99469,74.30352783
1010.995178,73.99110413
1009.994873,74.14925385
1008.994019,74.09889984
1007.992432,74.38047028
1006.990417,74.32876587
1005.98761,74.39360809
1004.984314,74.52859497
1004.011719,74.64591217
1003.007263,74.73587036
1002.001953,75.0482254
1000.996216,74.99923706
999.9896851,75.06910706
999.0140991,75.39017487
998.0065918,75.58652496
996.99823,75.65374756
995.9894409,75.88899994
995.0114746,75.76973724
994.0014038,75.9874649
992.9907837,76.1712265
992.0109863,76.34177399
990.9990845,76.11488342
989.9865723,76.03672028
989.005188,76.33029175
987.9914551,76.28303528
987.0088501,76.34726715
985.9940796,76.28088379
985.0102539,76.06518555
983.9940186,76.12062836
983.0091553,76.03594208
981.9918823,76.12636566
981.0057373,76.19342041
979.9872437,76.12161255
979.000061,76.40736389
978.0122681,76.33622742
976.9921265,76.20848083
976.0031128,76.14705658
975.0134888,76.35211182
973.9915161,76.38202667
973.0009155,76.28156281
972.0096436,76.13476563
970.9857788,76.1360321
969.9934692,76.22419739
969.0006104,76.19326019
968.0070801,76.19789886
967.0130005,76.09060669
965.9862671,75.92714691
964.9910889,76.05426025
963.9953613,75.888237
962.9990234,75.91941833
962.0022583,75.87006378
961.0047607,75.86326599
960.0067749,75.80274963
959.0083618,75.68971252
958.0092163,75.63683319
957.0095825,75.56998444
956.0093994,75.38452911
955.0085449,75.32072449
954.0072632,75.20049286
953.0055542,75.15383148
952.0031128,74.93254852
951.0001831,74.75593567
949.996582,74.54633331
948.9925537,74.24733734
947.987915,73.92988586
947.0151978,73.59416199
946.0094604,73.48171997
945.0032959,73.1641922
943.996582,72.74286652
942.9892578,72.29323578
942.013855,71.75933075
941.0054932,71.29995728
939.996582,70.64933777
938.9871216,70.11248016
938.0096436,69.54080963
936.9990845,68.97984314
935.9879761,68.38513947
935.0089722,67.86223602
933.9967651,67.42763519
932.9840698,67.05745697
932.00354,66.87985229
930.9898071,66.63356781
930.0083008,66.51032257
928.9933472,66.46676636
928.0108032,66.5491333
926.9949341,66.54264832
926.0112915,66.68041992
924.9943237,66.87754822
924.0097656,66.94174194
922.9916992,67.2052002
922.0061646,67.37963867
920.9870605,67.57211304
920.0004272,67.74026489
919.0133057,67.94922638
917.9926147,68.15519714
917.0043945,68.42396545
916.0157471,68.6328125
914.9936523,68.60818481
914.0038452,68.63819122
913.0136719,68.936203
911.9899292,69.1550827
910.9987793,69.35071564
910.0070801,69.6609726
909.0149536,69.92442322
907.9891968,70.15319824
906.9959717,70.34706116
906.0022583,70.53810883
905.0081787,70.71479797
904.0134888,70.72008514
902.9851685,70.70401001
901.989563,70.78093719
900.9934082,70.82948303
899.9968262,70.87384033
898.9996338,70.94649506
898.0020752,70.9832077
897.0039673,71.06129456
896.0054321,71.12468719
895.0064087,71.28379822
894.0067749,71.37482452
893.0067749,71.4256897
892.0062866,71.56134033
891.0053101,71.70765686
890.0039063,71.85100555
889.00177,71.94408417
887.9993286,72.02561188
886.9963989,72.07165527
885.993042,72.17950439
884.9892578,72.2283783
883.9848022,72.36052704
883.0134277,72.58021545
882.0082397,72.76325989
881.0023804,72.79092407
879.9960938,72.81806946
878.9893188,72.85339355
878.0157471,72.90627289
877.0079956,72.97366333
875.9998779,73.01667023
874.991333,73.12329102
874.0157471,73.1998291
873.0062866,73.3168335
871.9962769,73.32172394
870.9858398,73.41648102
870.0084839,73.47714996
868.9970703,73.50541687
867.9851685,73.62760925
867.0065308,73.64255524
865.9936523,73.68476868
865.0142212,73.62421417
864.0004272,73.6073761
862.9862061,73.55941772
862.0053711,73.54620361
860.9902344,73.57064819
860.0084839,73.49533844
858.9924927,73.45500183
858.0098267,73.45045471
856.9928589,73.40604401
856.0094604,73.30426025
854.991394,73.32121277
854.0071411,73.34700012
852.9883423,73.36569214
852.0030518,73.35054016
850.9833984,73.19726563
849.9971313,73.25615692
849.0106201,73.23023987
847.9894409,73.13634491
847.0020752,73.14634705
846.0142822,73.1307373
844.9918823,73.07784271
844.0030518,73.02485657
843.013855,73.00952911
841.9901123,72.9776001
841.0001221,72.98432922
840.0095825,72.9979248
838.9844971,72.88157654
837.9931641,72.82893372
837.0013428,72.80443573
836.0093384,72.86328125
835.0166016,72.89439392
833.9893799,72.83779907
832.9959106,72.80567932
832.0019531,72.70491028
831.0076294,72.73469543
830.0128784,72.73733521
828.9834595,72.66927338
827.987915,72.71611023
826.9918823,72.72331238
825.9953613,72.65696716
824.9985352,72.60070038
824.0012207,72.61506653
823.0036621,72.7820282
822.0056152,72.63891602
821.0070801,72.57758331
820.0081177,72.5246048
819.008728,72.4575119
818.0089722,72.39509583
817.0087891,72.37986755
816.0082397,72.38805389
815.0072632,72.40494537
814.0057983,72.35777283
813.0039673,72.34832001
812.00177,72.23756409
810.9991455,72.23252106
809.9960327,72.20009613
808.9924927,72.17057037
807.9887085,72.15940857
806.984436,72.06790924
806.0143433,72.03005981
805.0092163,71.86929321
804.0037842,71.93350983
802.9979248,71.93010712
801.9915161,71.85253143
800.9848633,71.80348969
800.0124512,71.81797028
799.0050049,71.89614105
797.9970093,71.83198547
796.9887085,71.94654083
796.0147705,71.9130249
795.0056763,71.91234589
793.9960938,71.93621063
792.986145,72.0032959
792.0107422,72.00757599
791,72.02849579
789.9888916,72.05970001
789.0122681,72.09915924
788.0003052,72.14447021
786.9880371,72.06826019
786.0102539,72.1275177
784.9971924,72.0896759
783.9837036,72.15272522
783.0048828,72.21035767
781.9905396,72.16304016
781.0108643,72.1603775
779.9958496,72.10351563
779.0154419,72.13626862
777.9996948,72.14239502
776.9834595,72.07395172
776.0018921,72.08760071
774.9849243,72.06958008
774.0026245,71.9825058
772.9848633,71.96013641
772.0018921,71.84512329
770.9833984,71.73735046
769.9995728,71.68889618
769.0155029,71.55198669
767.9957886,71.49076843
767.0109253,71.40975952
765.9905396,71.30443573
765.0049438,71.27518463
763.9837646,71.25963593
762.9974365,71.25763702
762.0106812,71.27204895
760.9883423,71.24315643
760.0009766,71.21583557
759.0131226,71.34899139
757.9896851,71.30714417
757.0012207,71.36595154
756.0122681,71.50975037
754.9877319,71.49282074
753.9981079,71.55184174
753.0081787,71.6149826
751.9824219,71.74303436
750.9918213,71.75958252
750.0007324,71.80548096
749.0093384,71.80387115
748.0175781,71.88680267
746.9901123,71.93755341
745.9976196,71.98230743
745.0048218,72.05963135
744.0116577,72.0868454
742.982605,72.11940002
741.9887085,72.20651245
740.9945068,72.19888306
739.999939,72.20986176
739.0050659,72.24331665
738.0097656,72.24911499
737.0140991,72.27186584
735.9825439,72.28495789
734.9862061,72.3210907
733.989502,72.31925201
732.9925537,72.2948761
731.9951172,72.23905182
730.9974365,72.28131866
729.9993286,72.23178101
729.0009155,72.23441315
728.0021362,72.27037048
727.0031128,72.20580292
726.0036621,72.16290283
725.0038452,72.13002014
724.0037231,72.15024567
723.0032959,72.01320648
722.0024414,71.94033051
721.0013428,71.88254547
719.9998169,71.88046265
718.9979858,71.76386261
717.9957886,71.65470123
716.9932861,71.5256424
715.9904785,71.44371033
714.9872437,71.30673218
713.9837646,71.14200592
713.015686,71.03398132
712.0115356,70.89902496
711.007019,70.70024872
710.0022583,70.59793091
708.9970093,70.42610931
707.9914551,70.26433563
706.9855957,70.13464355
706.0153809,70.01791382
705.0088501,69.91294861
704.0020142,69.81561279
702.994812,69.63357544
701.9873047,69.49297333
701.0154419,69.38962555
700.0073242,69.35516357
698.9987793,69.23216248
697.9899902,69.12377167
697.0169678,69.05497742
696.0074463,68.96170807
694.9976196,68.87156677
693.9874878,68.80745697
693.0130615,68.71649933
692.0023193,68.68518066
690.991272,68.58660889
690.0159302,68.51873016
689.0042114,68.42670441
687.9921875,68.34391022
687.0159302,68.23787689
686.0032349,68.15197754
684.9902344,68.06718445
684.0130615,68.04738617
682.9994507,67.86786652
681.9854126,67.80745697
681.0073853,67.82437897
679.9927368,67.73259735
679.0140381,67.68040466
677.9988403,67.61501312
676.9832153,67.57418823
676.0036621,67.53340912
674.9874268,67.46108246
674.0072632,67.36485291
672.9904785,67.34449005
672.0096436,67.26984406
670.9922485,67.22942352
670.0108032,67.13460541
668.9927979,67.17985535
668.0106812,67.18748474
666.9920654,67.15428925
666.0094604,67.13772583
664.9901733,67.08863068
664.006958,67.05195618
662.9870605,67.02955627
662.0032959,66.92764282
660.9827271,66.95244598
659.9983521,66.90467834
659.0137329,66.88149261
657.9921875,66.78572083
657.007019,66.76148987
655.9849243,66.66706085
654.9990845,66.6317749
654.0130005,66.6064682
652.9900513,66.50325775
652.0032959,66.47641754
651.0163574,66.50016785
649.9924316,66.42569733
649.0048218,66.41514587
648.0170288,66.37138367
646.9922485,66.28511047
646.0037842,66.24037933
645.0151367,66.16500092
643.9894409,66.06893158
643.000061,66.00566101
642.010498,65.91473389
640.9840088,65.87831116
639.9938965,65.81066895
639.0033569,65.78152466
638.0126343,65.68125916
636.9849854,65.65006256
635.9936523,65.55953979
635.0020752,65.49777985
634.0102539,65.42166138
633.0180664,65.42527771
631.9889526,65.28985596
630.9962769,65.23704529
630.0032959,65.18730164
629.0100708,65.12508392
628.0164795,65.05014038
626.9858398,65.10637665
625.9918213,65.07378387
624.9974365,65.03084564
624.0028076,65.03314972
623.0079346,64.9620285
622.0127563,64.91803741
621.0172729,64.93692017
619.9846191,64.95162964
618.9886475,64.93186951
617.9923706,64.92713165
616.9958496,64.84822083
615.9989624,64.83978271
615.0018311,64.81611633
614.0045776,64.76948547
613.006897,64.76160431
612.0090332,64.69763947
611.0108032,64.66712189
610.0123901,64.67349243
609.0136719,64.64744568
608.0147705,64.53452301
607.0154419,64.5100174
606.0159912,64.51537323
605.0162354,64.49693298
604.0161133,64.4841156
603.0158691,64.44291687
602.0152588,64.40539551
601.0144653,64.32476044
600.0133667,64.30799103
599.0119629,64.22599792
598.010376,64.15605164
597.0084229,64.21258545
596.0062866,64.14826202
595.0039673,64.11372375
594.0012817,64.10664368
592.998291,64.04540253
591.9951782,64.02371216
590.9916992,64.02443695
589.987915,64.00764465
588.9840088,63.99851608
588.0169678,63.95668411
587.0125122,63.92406845
586.0078125,63.92479706
585.0027466,63.9018364
583.9974976,63.89324188
582.9920654,63.87036896
581.9862671,63.82331848
581.0175171,63.80513382
580.0112305,63.75786591
579.0047607,63.77965927
577.9979248,63.80137253
576.9909058,63.7705574
575.9836426,63.68860626
575.0134277,63.71554565
574.0056763,63.69783401
572.9976807,63.67759705
571.9893799,63.64937592
571.0181885,63.66921234
570.0093994,63.60709763
569.0004272,63.59288025
567.9910889,63.46539307
566.9816284,63.45773315
566.0092773,63.42877579
564.9992676,63.34072876
563.9890137,63.26270676
563.0159302,63.1344986
562.005188,63.14485168
560.9942627,63.13645935
559.9829712,63.03647232
559.0089722,63.03138733
557.9972534,62.96426773
556.9853516,62.91568756
556.0106201,62.887146
554.9981689,62.89028549
553.9855347,62.79494095
553.0100708,62.78723907
551.9968872,62.69532013
550.9835205,62.60797501
550.0073853,62.51811218
548.9935303,62.45552826
548.0169678,62.40757751
547.0026245,62.31742096
545.9880371,62.25476074
545.0108032,62.20751953
543.9957886,62.06034851
543.0180664,62.05934143
542.0025635,61.9669838
540.9868164,61.91632843
540.0083618,61.80470657
538.9921875,61.70432663
538.0133667,61.51272202
536.9967041,61.44152451
536.0174561,61.31876755
535.0001831,61.11939621
533.9828491,61.0189743
533.0029297,60.95446777
531.9851074,60.76813889
531.0047607,60.58810806
529.9864502,60.37809372
529.0056152,60.33327484
527.9868164,60.21629715
527.0055542,60.07629013
525.9863281,59.94237137
525.0046387,59.81375504
523.9849854,59.63293457
523.0028687,59.49722672
521.9827271,59.36569595
521.0001221,59.20014191
520.017395,59.07699966
518.996582,58.9957962
518.0134277,58.83979797
516.9922485,58.72789764
516.0085449,58.53779221
514.9868774,58.38368988
514.0028687,58.25159073
513.0185547,58.07893372
511.9961853,57.99103546
511.0115051,57.87175751
509.988739,57.73601532
509.0036621,57.5995636
508.01828,57.49794388
506.994873,57.39823151
506.0091248,57.27168274
504.9852295,57.12612915
503.9990845,57.00365829
503.0126953,56.870121
501.9881897,56.74266052
501.0014038,56.59817886
500.0144043,56.53894424
498.9892883,56.41864014
498.0018311,56.34767914
497.0142517,56.24644852
495.9884644,56.10049438
495.0003967,56.0246582
494.012207,55.89243698
492.9857483,55.83583069
491.9971313,55.71511459
491.0083313,55.61672592
489.9812317,55.46845627
488.9920349,55.34334183
488.002594,55.20640182
487.0129089,54.98269653
485.9850159,54.79810333
484.9949951,54.65080261
484.0047302,54.54792404
483.0143127,54.40010834
481.9856262,54.24646759
480.994751,54.08777618
480.0037537,53.93519974
479.0125122,53.75390625
477.9829712,53.51186371
476.991394,53.37711716
475.9995728,53.20703888
475.0075378,53.06484604
474.0153809,52.86635208
472.9847412,52.67350769
471.992157,52.51021576
470.9994202,52.31924057
470.0064392,52.2109108
469.0132446,52.0371933
467.9816895,51.84452438
466.9881287,51.67547989
465.9943848,51.5151329
465.0004272,51.35690689
464.0063477,51.15936279
463.0119629,51.02520752
462.0174866,50.78093338
460.9845886,50.62054825
459.9896851,50.47766495
458.9945984,50.32295609
457.9993591,50.14046478
457.0038757,49.95446014
456.0082703,49.75037384
455.0124817,49.5656929
454.016449,49.38206482
452.9819031,49.21367264
451.9855957,49.03280258
450.9889221,48.85848618
449.992218,48.73366165
448.9953308,48.57377625
447.99823,48.44472885
447.000946,48.25498581
446.003418,48.10459518
445.0057678,47.96327209
444.0079651,47.78759384
443.0098877,47.72309113
442.0116882,47.53945541
441.0133362,47.3688736
440.0147705,47.2452507
439.0160522,47.08724213
438.0170898,46.97890472
437.0180359,46.81155777
436.0187988,46.67736435
434.9808044,46.55172348
433.9812622,46.35961533
432.9814453,46.23560333
431.9814453,46.10977173
430.9812317,45.9387207
429.980896,45.78723145
429.0189209,45.61104584
428.0181885,45.49079132
427.0173645,45.31487274
426.0163574,45.20154953
425.0151367,45.03024292
424.0137939,44.90957642
423.0122375,44.75188065
422.0105286,44.63896561
421.008606,44.48547363
420.0065613,44.31507874
419.0043335,44.12848282
418.0019531,43.95704269
416.9993286,43.80440521
415.9966125,43.63853455
414.9937134,43.50759888
413.9905701,43.35696793
412.9873657,43.18339539
411.9839172,42.97865295
411.0189514,42.84706879
410.0152283,42.67829895
409.0112915,42.49818039
408.0072327,42.21607971
407.0029602,42.01926422
405.9985352,41.84940338
404.9939575,41.65401077
403.9892578,41.42888641
402.9843445,41.2233963
402.0179138,41.06055069
401.0126953,40.83507538
400.0072937,40.62651825
