nm,%T
1100.00708,81.59658813
1099.00769,82.64662933
1098.007568,83.23060608
1097.006714,81.76094818
1096.005005,82.23617554
1095.002686,83.34317017
1093.999512,82.09667969
1092.995605,82.62128448
1091.990845,82.22779846
1090.985352,82.81770325
1090.008789,83.50001526
1089.001831,83.08834076
1087.994263,81.9281311
1086.985718,83.66355896
1086.006226,81.78731537
1084.996094,82.01055145
1083.985474,81.57562256
1083.003784,81.96985626
1081.991455,82.52479553
1081.008423,83.47367859
1079.994751,81.34463501
1079.010132,81.41118622
1077.994995,81.983284
1077.009033,82.11332703
1075.99231,81.8942337
1075.005005,81.14303589
1073.986694,82.0976181
1072.997925,82.3937149
1072.008301,81.21086121
1070.988037,81.03882599
1069.996948,82.25843811
1069.005371,82.25099182
1068.012939,82.18717957
1066.989624,81.04437256
1065.99585,81.52696228
1065.001221,81.3400116
1064.005981,80.68301392
1063.01001,80.92419434
1062.013428,79.99060822
1060.98584,80.57347107
1059.987793,80.99938965
1058.989014,80.82906342
1057.989624,80.66676331
1056.989502,80.35630798
1055.98877,80.6832428
1054.987183,80.46208954
1053.984985,80.2325592
1053.012451,80.32810211
1052.008911,80.20650482
1051.004761,79.86195374
1049.999634,80.3117981
1048.994141,79.71824646
1047.987793,79.66981506
1047.01123,79.84056091
1046.003662,79.94213104
1044.995239,79.62297821
1043.986206,79.72242737
1043.00708,79.32523346
1041.996704,79.51193237
1040.985596,79.57604218
1040.004517,79.6367569
1038.991943,79.6593399
1038.009644,79.8813858
1036.99585,79.60506439
1036.012207,79.63541412
1034.99707,79.81794739
1034.012207,79.72296143
1032.995728,79.79484558
1032.009277,79.86395264
1030.991577,79.62139893
1030.004028,80.34473419
1028.984863,80.56573486
1027.996094,80.28253174
1027.00647,80.5663681
1025.985474,80.46865845
1024.994751,80.62404633
1024.003174,80.80282593
1023.01123,80.73297882
1021.987549,80.63505554
1020.99408,80.82183838
1020.000183,80.833992
1019.005615,81.13432312
1018.010376,81.24848938
1017.014526,81.22657776
1015.986938,81.32118225
1014.989807,81.21087646
1013.992065,81.614151
1012.993774,81.70520782
1011.99469,81.82659912
1010.995178,81.90113068
1009.994873,82.1160965
1008.994019,82.02706909
1007.992432,82.44420624
1006.990417,82.52026367
1005.98761,82.43630219
1004.984314,82.55845642
1004.011719,82.69445038
1003.007263,82.99077606
1002.001953,83.17263794
1000.996216,83.2948761
999.9896851,83.04584503
999.0140991,83.32099915
998.0065918,83.56309509
996.99823,83.54741669
995.9894409,83.65717316
995.0114746,83.834198
994.0014038,83.92895508
992.9907837,84.08363342
992.0109863,84.43315125
990.9990845,84.21776581
989.9865723,84.25180817
989.005188,84.31182861
987.9914551,84.51232147
987.0088501,84.57549286
985.9940796,84.53912354
985.0102539,84.59049225
983.9940186,84.62697601
983.0091553,84.57002258
981.9918823,84.50492096
981.0057373,84.84811401
979.9872437,84.81468201
979.000061,84.95220184
978.0122681,84.77685547
976.9921265,84.77139282
976.0031128,84.73484039
975.0134888,84.83860779
973.9915161,84.80290985
973.0009155,84.91880035
972.0096436,84.78095245
970.9857788,84.82569122
969.9934692,84.84776306
969.0006104,84.84683228
968.0070801,84.86300659
967.0130005,84.80268097
965.9862671,84.71253967
964.9910889,84.66081238
963.9953613,84.56813049
962.9990234,84.57800293
962.0022583,84.62641144
961.0047607,84.5531311
960.0067749,84.52487946
959.0083618,84.44168091
958.0092163,84.32254028
957.0095825,84.26789093
956.0093994,84.14832306
955.0085449,84.0918808
954.0072632,83.95674896
953.0055542,83.90348053
952.0031128,83.72972107
951.0001831,83.59164429
949.996582,83.45619965
948.9925537,83.18955231
947.987915,82.91840363
947.0151978,82.66760254
946.0094604,82.45031738
945.0032959,82.1450119
943.996582,81.69330597
942.9892578,81.19943237
942.013855,80.76279449
941.0054932,80.23370361
939.996582,79.67004395
938.9871216,78.96957397
938.0096436,78.44389343
936.9990845,77.80758667
935.9879761,77.21335602
935.0089722,76.66785431
933.9967651,76.20430756
932.9840698,75.68668365
932.00354,75.39936829
930.9898071,75.169487
930.0083008,75.05709076
928.9933472,74.94255829
928.0108032,74.89233398
926.9949341,75.1706543
926.0112915,75.19325256
924.9943237,75.20037842
924.0097656,75.4122467
922.9916992,75.63510895
922.0061646,75.75266266
920.9870605,76.00326538
920.0004272,76.14404297
919.0133057,76.34809875
917.9926147,76.56720734
917.0043945,76.97042084
916.0157471,77.18391418
914.9936523,77.13497162
914.0038452,77.3405304
913.0136719,77.46699524
911.9899292,77.79386902
910.9987793,78.05028534
910.0070801,78.39542389
909.0149536,78.66493225
907.9891968,78.94946289
906.9959717,79.09541321
906.0022583,79.3376236
905.0081787,79.58309937
904.0134888,79.73123169
902.9851685,79.57688141
901.989563,79.6769104
900.9934082,79.76152802
899.9968262,79.72050476
898.9996338,79.76599884
898.0020752,79.73993683
897.0039673,79.83544922
896.0054321,79.9901123
895.0064087,80.068367
894.0067749,80.13574219
893.0067749,80.21315765
892.0062866,80.32691193
891.0053101,80.54824829
890.0039063,80.74840546
889.00177,80.93849182
887.9993286,81.20792389
886.9963989,81.43141937
885.993042,81.67159271
884.9892578,81.82624054
883.9848022,82.08594513
883.0134277,82.38169861
882.0082397,82.63175201
881.0023804,82.64212036
879.9960938,82.66990662
878.9893188,82.76065063
878.0157471,82.9131546
877.0079956,82.93001556
875.9998779,82.97951508
874.991333,83.10055542
874.0157471,83.21838379
873.0062866,83.28133392
871.9962769,83.24420166
870.9858398,83.268013
870.0084839,83.39570618
868.9970703,83.43009186
867.9851685,83.45491028
867.0065308,83.46686554
865.9936523,83.54421997
865.0142212,83.56938934
864.0004272,83.58740997
862.9862061,83.60800934
862.0053711,83.57296753
860.9902344,83.6526413
860.0084839,83.53748322
858.9924927,83.60398865
858.0098267,83.54602051
856.9928589,83.61686707
856.0094604,83.5674057
854.991394,83.62631226
854.0071411,83.63076782
852.9883423,83.57350159
852.0030518,83.67204285
850.9833984,83.68016052
849.9971313,83.63342285
849.0106201,83.56460571
847.9894409,83.61652374
847.0020752,83.53973389
846.0142822,83.56645203
844.9918823,83.53712463
844.0030518,83.60049438
843.013855,83.49656677
841.9901123,83.60184479
841.0001221,83.50415802
840.0095825,83.53069305
838.9844971,83.41770935
837.9931641,83.43048859
837.0013428,83.46073151
836.0093384,83.48708344
835.0166016,83.51668549
833.9893799,83.54998016
832.9959106,83.42157745
832.0019531,83.40655518
831.0076294,83.36914063
830.0128784,83.35855103
828.9834595,83.36457062
827.987915,83.48789215
826.9918823,83.42510223
825.9953613,83.39758301
824.9985352,83.35948944
824.0012207,83.45124054
823.0036621,83.78269196
822.0056152,83.57950592
821.0070801,83.49514771
820.0081177,83.46781921
819.008728,83.41340637
818.0089722,83.50613403
817.0087891,83.47018433
816.0082397,83.40293884
815.0072632,83.51598358
814.0057983,83.52186584
813.0039673,83.54637909
812.00177,83.56549835
810.9991455,83.61071014
809.9960327,83.65447235
808.9924927,83.56337738
807.9887085,83.59820557
806.984436,83.69174957
806.0143433,83.66875458
805.0092163,83.64659882
804.0037842,83.68333435
802.9979248,83.74699402
801.9915161,83.72267151
800.9848633,83.77282715
800.0124512,83.7641983
799.0050049,83.84055328
797.9970093,83.84618378
796.9887085,83.83959961
796.0147705,83.82627106
795.0056763,83.79962158
793.9960938,83.86300659
792.986145,83.89045715
792.0107422,83.92701721
791,83.91986847
789.9888916,83.95096588
789.0122681,83.84398651
788.0003052,83.908638
786.9880371,83.88917542
786.0102539,84.01730347
784.9971924,83.99300385
783.9837036,83.88259125
783.0048828,83.93414307
781.9905396,83.94015503
781.0108643,83.95630646
779.9958496,84.00219727
779.0154419,83.98347473
777.9996948,83.90426636
776.9834595,83.97751617
776.0018921,84.02256775
774.9849243,83.95445251
774.0026245,83.88730621
772.9848633,83.84648895
772.0018921,83.86009216
770.9833984,83.85788727
769.9995728,83.75826263
769.0155029,83.78121948
767.9957886,83.7386322
767.0109253,83.73635101
765.9905396,83.66130829
765.0049438,83.68660736
763.9837646,83.67560577
762.9974365,83.56363678
762.0106812,83.60842896
760.9883423,83.59420776
760.0009766,83.68986511
759.0131226,83.73125458
757.9896851,83.72801208
757.0012207,83.82139587
756.0122681,83.95019531
754.9877319,83.98638916
753.9981079,84.03730774
753.0081787,84.06452942
751.9824219,84.22650146
750.9918213,84.28414917
750.0007324,84.23690033
749.0093384,84.41712189
748.0175781,84.46903992
746.9901123,84.61601257
745.9976196,84.61813354
745.0048218,84.7416153
744.0116577,84.78233337
742.982605,84.91110992
741.9887085,84.98760986
740.9945068,85.14636993
739.999939,85.21075439
739.0050659,85.27534485
738.0097656,85.39915466
737.0140991,85.38853455
735.9825439,85.41978455
734.9862061,85.48586273
733.989502,85.58247375
732.9925537,85.57809448
731.9951172,85.59564209
730.9974365,85.59680939
729.9993286,85.68183136
729.0009155,85.63911438
728.0021362,85.70336914
727.0031128,85.71569061
726.0036621,85.64716339
725.0038452,85.65696716
724.0037231,85.68766022
723.0032959,85.65713501
722.0024414,85.62751007
721.0013428,85.58430481
719.9998169,85.5241394
718.9979858,85.53385162
717.9957886,85.44677734
716.9932861,85.35105133
715.9904785,85.29624939
714.9872437,85.18518829
713.9837646,85.10253143
713.015686,85.03250885
712.0115356,84.90409851
711.007019,84.75196838
710.0022583,84.71743011
708.9970093,84.63428497
707.9914551,84.5037384
706.9855957,84.36421967
706.0153809,84.30168152
705.0088501,84.17654419
704.0020142,84.12991333
702.994812,84.01148987
701.9873047,83.87433624
701.0154419,83.83000183
700.0073242,83.77853394
698.9987793,83.72201538
697.9899902,83.60321045
697.0169678,83.54064941
696.0074463,83.42280579
694.9976196,83.38245392
693.9874878,83.31902313
693.0130615,83.31951141
692.0023193,83.16697693
690.991272,83.09136963
690.0159302,83.02708435
689.0042114,82.98968506
687.9921875,82.97550201
687.0159302,82.90066528
686.0032349,82.80066681
684.9902344,82.75209808
684.0130615,82.7154007
682.9994507,82.66845703
681.9854126,82.49504089
681.0073853,82.55435944
679.9927368,82.53977203
679.0140381,82.52513123
677.9988403,82.49875641
676.9832153,82.41221619
676.0036621,82.36164093
674.9874268,82.30447388
674.0072632,82.29518127
672.9904785,82.22637177
672.0096436,82.21089172
670.9922485,82.1338501
670.0108032,82.0670166
668.9927979,82.07144165
668.0106812,82.1723938
666.9920654,82.18888855
666.0094604,82.13317108
664.9901733,82.0752182
664.006958,82.13705444
662.9870605,82.06660461
662.0032959,82.07899475
660.9827271,82.02832031
659.9983521,82.07993317
659.0137329,82.12086487
657.9921875,82.06645203
657.007019,82.03027344
655.9849243,82.05483246
654.9990845,82.00003052
654.0130005,82.03901672
652.9900513,81.99826813
652.0032959,81.97628021
651.0163574,82.03137207
649.9924316,82.00596619
649.0048218,82.05723572
648.0170288,82.00990295
646.9922485,81.97583771
646.0037842,82.02641296
645.0151367,81.98395538
643.9894409,81.98469543
643.000061,81.94713593
642.010498,81.94322205
640.9840088,81.9849472
639.9938965,81.94628906
639.0033569,81.97777557
638.0126343,81.9285965
636.9849854,81.97627258
635.9936523,81.96091461
635.0020752,81.93090057
634.0102539,81.9930954
633.0180664,81.97385406
631.9889526,81.91490936
630.9962769,81.91281891
630.0032959,82.00363159
629.0100708,81.90455627
628.0164795,81.91949463
626.9858398,81.92401886
625.9918213,81.98594666
624.9974365,81.99386597
624.0028076,81.95951843
623.0079346,81.90448761
622.0127563,82.01399994
621.0172729,81.90892792
619.9846191,81.89350128
618.9886475,81.9405365
617.9923706,81.94616699
616.9958496,81.961586
615.9989624,81.90315247
615.0018311,81.98225403
614.0045776,81.93757629
613.006897,81.99397278
612.0090332,81.9234314
611.0108032,82.02160645
610.0123901,81.99494171
609.0136719,82.04148865
608.0147705,82.02372742
607.0154419,81.95378113
606.0159912,82.03019714
605.0162354,82.04597473
604.0161133,82.08750153
603.0158691,82.04563904
602.0152588,82.04406738
601.0144653,82.04582214
600.0133667,82.07184601
599.0119629,82.03529358
598.010376,82.05406952
597.0084229,82.11199951
596.0062866,82.12045288
595.0039673,82.18738556
594.0012817,82.13789368
592.998291,82.14461517
591.9951782,82.19487762
590.9916992,82.18312073
589.987915,82.25352478
588.9840088,82.26275635
588.0169678,82.30392456
587.0125122,82.27991486
586.0078125,82.38076782
585.0027466,82.41378021
583.9974976,82.34052277
582.9920654,82.43211365
581.9862671,82.45166779
581.0175171,82.45736694
580.0112305,82.47613525
579.0047607,82.49916077
577.9979248,82.57009125
576.9909058,82.57112122
575.9836426,82.63592529
575.0134277,82.67417908
574.0056763,82.64718628
572.9976807,82.71263123
571.9893799,82.75497437
571.0181885,82.85251617
570.0093994,82.79521942
569.0004272,82.93480682
567.9910889,82.87123108
566.9816284,82.93247223
566.0092773,82.99728394
564.9992676,83.03910828
563.9890137,83.02125549
563.0159302,83.08332062
562.005188,83.13905334
560.9942627,83.21759033
559.9829712,83.23508453
559.0089722,83.16082764
557.9972534,83.21883392
556.9853516,83.25856781
556.0106201,83.26998901
554.9981689,83.30150604
553.9855347,83.25611877
553.0100708,83.29479218
551.9968872,83.24552917
550.9835205,83.24243927
550.0073853,83.16162872
548.9935303,83.21173096
548.0169678,83.12460327
547.0026245,83.11226654
545.9880371,83.10686493
545.0108032,83.00218201
543.9957886,82.93968201
543.0180664,82.96962738
542.0025635,82.86670685
540.9868164,82.88134766
540.0083618,82.7194519
538.9921875,82.62426758
538.0133667,82.51436615
536.9967041,82.46576691
536.0174561,82.45744324
535.0001831,82.23570251
533.9828491,82.26843262
533.0029297,82.17797852
531.9851074,82.00392151
531.0047607,81.92539978
529.9864502,81.79038239
529.0056152,81.93373108
527.9868164,81.80587006
527.0055542,81.63616943
525.9863281,81.51046753
525.0046387,81.51158142
523.9849854,81.30652618
523.0028687,81.26355743
521.9827271,81.14328766
521.0001221,81.02614594
520.017395,81.01906586
518.996582,80.89530182
518.0134277,80.92023468
516.9922485,80.80696106
516.0085449,80.73336792
514.9868774,80.62128448
514.0028687,80.5639801
513.0185547,80.49112701
511.9961853,80.43331146
511.0115051,80.42533875
509.988739,80.37931061
509.0036621,80.28025818
508.01828,80.29072571
506.994873,80.25211334
506.0091248,80.11479187
504.9852295,80.13058472
503.9990845,80.13316345
503.0126953,80.04794312
501.9881897,80.07219696
501.0014038,79.97039795
500.0144043,79.97015381
498.9892883,79.96523285
498.0018311,79.92449188
497.0142517,79.92090607
495.9884644,79.89571381
495.0003967,79.79853058
494.012207,79.74108887
492.9857483,79.73320007
491.9971313,79.71641541
491.0083313,79.79896545
489.9812317,79.57532501
488.9920349,79.52775574
488.002594,79.56734467
487.0129089,79.51119232
485.9850159,79.34752655
484.9949951,79.22247314
484.0047302,79.22042084
483.0143127,79.10636902
481.9856262,78.92329407
480.994751,78.79608154
480.0037537,78.60675049
479.0125122,78.39372253
477.9829712,78.22471619
476.991394,78.01877594
475.9995728,77.93637848
475.0075378,77.83386993
474.0153809,77.62213135
472.9847412,77.4274826
471.992157,77.25502014
470.9994202,77.11857605
470.0064392,76.94393158
469.0132446,76.72968292
467.9816895,76.62356567
466.9881287,76.47834778
465.9943848,76.30401611
465.0004272,76.16700745
464.0063477,75.9862442
463.0119629,75.81707001
462.0174866,75.65812683
460.9845886,75.48493958
459.9896851,75.38287354
458.9945984,75.24597931
457.9993591,74.99172974
457.0038757,74.86392212
456.0082703,74.62722015
455.0124817,74.47980499
454.016449,74.30912018
452.9819031,74.16329193
451.9855957,73.96826935
450.9889221,73.73404694
449.992218,73.60894775
448.9953308,73.42560577
447.99823,73.24965668
447.000946,73.1078186
446.003418,72.89776611
445.0057678,72.64504242
444.0079651,72.50498199
443.0098877,72.30934143
442.0116882,72.11325836
441.0133362,71.9671402
440.0147705,71.74187469
439.0160522,71.6175766
438.0170898,71.39783478
437.0180359,71.2240448
436.0187988,71.0901947
434.9808044,70.85163879
433.9812622,70.65000916
432.9814453,70.43385315
431.9814453,70.19595337
430.9812317,69.94091034
429.980896,69.74252319
429.0189209,69.44695282
428.0181885,69.27794647
427.0173645,68.98501587
426.0163574,68.72900391
425.0151367,68.49905396
424.0137939,68.27229309
423.0122375,67.94610596
422.0105286,67.73565674
421.008606,67.4598465
420.0065613,67.12465668
419.0043335,66.85611725
418.0019531,66.59848785
416.9993286,66.35259247
415.9966125,66.08106995
414.9937134,65.73384857
413.9905701,65.48794556
412.9873657,65.12228394
411.9839172,64.79634857
411.0189514,64.58621979
410.0152283,64.32765198
409.0112915,63.9882164
408.0072327,63.63641739
407.0029602,63.29062653
405.9985352,62.94205093
404.9939575,62.5466423
403.9892578,62.16556931
402.9843445,61.75624084
402.0179138,61.31007767
401.0126953,60.88556671
400.0072937,60.44787598
