nm,%T
1100.00708,82.35951996
1099.00769,81.70400238
1098.007568,81.80045319
1097.006714,81.39335632
1096.005005,82.57411194
1095.002686,81.01390839
1093.999512,82.53458405
1092.995605,82.19248199
1091.990845,82.31240845
1090.985352,82.1186676
1090.008789,82.07975006
1089.001831,82.022995
1087.994263,81.90923309
1086.985718,80.52009583
1086.006226,81.42107391
1084.996094,81.14530182
1083.985474,82.2726059
1083.003784,81.99620056
1081.991455,81.69262695
1081.008423,82.15660095
1079.994751,81.9633255
1079.010132,81.64386749
1077.994995,81.69254303
1077.009033,81.8718338
1075.99231,81.65921021
1075.005005,81.59931946
1073.986694,81.26646423
1072.997925,82.41257477
1072.008301,80.56438446
1070.988037,80.71682739
1069.996948,81.30221558
1069.005371,81.65846252
1068.012939,81.27336121
1066.989624,81.15122223
1065.99585,81.03107452
1065.001221,80.72201538
1064.005981,81.47106171
1063.01001,81.18979645
1062.013428,80.9033432
1060.98584,80.90219116
1059.987793,81.06887817
1058.989014,79.84358215
1057.989624,80.45533752
1056.989502,80.95126343
1055.98877,80.5193634
1054.987183,80.15877533
1053.984985,80.33616638
1053.012451,80.195755
1052.008911,80.02119446
1051.004761,80.09192657
1049.999634,79.96396637
1048.994141,79.89260864
1047.987793,80.13726807
1047.01123,79.9980545
1046.003662,79.91136932
1044.995239,79.37453461
1043.986206,79.28897858
1043.00708,79.67679596
1041.996704,79.60721588
1040.985596,79.49404144
1040.004517,79.63681793
1038.991943,79.54759216
1038.009644,79.34700012
1036.99585,79.35416412
1036.012207,79.54388428
1034.99707,79.57072449
1034.012207,79.39149475
1032.995728,79.77188873
1032.009277,79.63037109
1030.991577,79.75101471
1030.004028,80.02282715
1028.984863,79.98292542
1027.996094,80.04833221
1027.00647,80.05063629
1025.985474,80.37034607
1024.994751,80.35267639
1024.003174,80.4885788
1023.01123,80.46829224
1021.987549,80.38597107
1020.99408,80.73080444
1020.000183,80.59233856
1019.005615,80.35334015
1018.010376,80.58702087
1017.014526,80.79007721
1015.986938,81.05212402
1014.989807,80.95077515
1013.992065,81.23194122
1012.993774,81.35747528
1011.99469,81.62339783
1010.995178,81.57700348
1009.994873,81.61737061
1008.994019,81.67253876
1007.992432,81.99071503
1006.990417,82.08463287
1005.98761,82.23368835
1004.984314,82.36357117
1004.011719,82.45739746
1003.007263,82.40157318
1002.001953,82.64585876
1000.996216,82.84209442
999.9896851,82.82655334
999.0140991,82.7868042
998.0065918,83.12338257
996.99823,83.24208069
995.9894409,83.17616272
995.0114746,83.23471832
994.0014038,83.44351196
992.9907837,83.71276855
992.0109863,83.96063232
990.9990845,83.69898987
989.9865723,83.85322571
989.005188,83.84093475
987.9914551,84.04385376
987.0088501,84.11897278
985.9940796,84.2045517
985.0102539,84.03366852
983.9940186,84.00067902
983.0091553,84.11100769
981.9918823,84.21736145
981.0057373,84.33473969
979.9872437,84.31390381
979.000061,84.4838028
978.0122681,84.41899872
976.9921265,84.35391235
976.0031128,84.26065826
975.0134888,84.3853302
973.9915161,84.39472198
973.0009155,84.38542175
972.0096436,84.43027496
970.9857788,84.46901703
969.9934692,84.3560791
969.0006104,84.51960754
968.0070801,84.50489044
967.0130005,84.48326874
965.9862671,84.38600922
964.9910889,84.22467804
963.9953613,84.27693176
962.9990234,84.28916168
962.0022583,84.34124756
961.0047607,84.33772278
960.0067749,84.33787537
959.0083618,84.12394714
958.0092163,84.15070343
957.0095825,83.95765686
956.0093994,83.86400604
955.0085449,83.70334625
954.0072632,83.76876831
953.0055542,83.63266754
952.0031128,83.59606934
951.0001831,83.42340851
949.996582,83.23213196
948.9925537,83.09033203
947.987915,82.7736969
947.0151978,82.54194641
946.0094604,82.32532501
945.0032959,82.11637878
943.996582,81.82318878
942.9892578,81.23522186
942.013855,80.96491241
941.0054932,80.54973602
939.996582,80.04454041
938.9871216,79.55438995
938.0096436,79.09699249
936.9990845,78.50279999
935.9879761,77.88732147
935.0089722,77.50063324
933.9967651,77.02602386
932.9840698,76.64413452
932.00354,76.40737152
930.9898071,76.21043396
930.0083008,76.00537872
928.9933472,75.90930939
928.0108032,75.747612
926.9949341,75.77089691
926.0112915,75.89455414
924.9943237,75.8633194
924.0097656,75.87982178
922.9916992,76.04376221
922.0061646,76.12989807
920.9870605,76.30241394
920.0004272,76.50214386
919.0133057,76.53068542
917.9926147,76.73517609
917.0043945,77.07437897
916.0157471,77.19036102
914.9936523,77.12409973
914.0038452,77.15531158
913.0136719,77.30177307
911.9899292,77.55058289
910.9987793,77.8320694
910.0070801,78.07244873
909.0149536,78.24084473
907.9891968,78.54621124
906.9959717,78.79329681
906.0022583,79.02648163
905.0081787,79.20362091
904.0134888,79.24115753
902.9851685,79.14360809
901.989563,79.16133881
900.9934082,79.22781372
899.9968262,79.13572693
898.9996338,79.14571381
898.0020752,79.1676178
897.0039673,79.21803284
896.0054321,79.12164307
895.0064087,79.22232819
894.0067749,79.1867981
893.0067749,79.14715576
892.0062866,79.28221893
891.0053101,79.39971924
890.0039063,79.6421814
889.00177,79.86040497
887.9993286,80.07850647
886.9963989,80.46075439
885.993042,80.69704437
884.9892578,80.83908844
883.9848022,81.20418549
883.0134277,81.51767731
882.0082397,81.83946228
881.0023804,81.85565948
879.9960938,81.99813843
878.9893188,82.11077881
878.0157471,82.18845367
877.0079956,82.33382416
875.9998779,82.40194702
874.991333,82.52725983
874.0157471,82.60617065
873.0062866,82.67758179
871.9962769,82.63742065
870.9858398,82.79000854
870.0084839,82.86267853
868.9970703,82.9473114
867.9851685,82.80971527
867.0065308,82.92557526
865.9936523,83.05580139
865.0142212,82.94065857
864.0004272,82.9397583
862.9862061,83.05350494
862.0053711,83.10179138
860.9902344,83.13375854
860.0084839,83.18893433
858.9924927,83.15703583
858.0098267,83.1696701
856.9928589,83.13224792
856.0094604,83.15170288
854.991394,83.14536285
854.0071411,83.18147278
852.9883423,83.09709167
852.0030518,83.00783539
850.9833984,83.05403137
849.9971313,83.08492279
849.0106201,83.11369324
847.9894409,82.94472504
847.0020752,83.11377716
846.0142822,83.05760956
844.9918823,83.05210876
844.0030518,83.07942963
843.013855,83.00955963
841.9901123,83.01145935
841.0001221,83.06224823
840.0095825,82.96393585
838.9844971,82.95043945
837.9931641,82.97473907
837.0013428,82.92575836
836.0093384,82.98219299
835.0166016,83.01903534
833.9893799,83.04701996
832.9959106,82.85725403
832.0019531,82.8735733
831.0076294,82.83140564
830.0128784,82.79986572
828.9834595,82.81458282
827.987915,83.02355194
826.9918823,82.91067505
825.9953613,82.8274765
824.9985352,82.81451416
824.0012207,82.91381836
823.0036621,83.12742615
822.0056152,82.95578003
821.0070801,82.86907196
820.0081177,82.85709381
819.008728,82.85907745
818.0089722,82.91630554
817.0087891,82.82220459
816.0082397,82.7980423
815.0072632,82.90924072
814.0057983,82.9666214
813.0039673,82.89374542
812.00177,82.97380829
810.9991455,82.87225342
809.9960327,83.0425415
808.9924927,83.00244141
807.9887085,83.02573395
806.984436,82.94445801
806.0143433,82.99358368
805.0092163,83.0046463
804.0037842,82.96092224
802.9979248,83.00041962
801.9915161,83.04401398
800.9848633,83.01934814
800.0124512,83.12428284
799.0050049,83.13050842
797.9970093,83.12098694
796.9887085,83.12153625
796.0147705,83.14727783
795.0056763,83.18606567
793.9960938,83.21434021
792.986145,83.19041443
792.0107422,83.17188263
791,83.14884186
789.9888916,83.26873779
789.0122681,83.25241852
788.0003052,83.20359802
786.9880371,83.20544434
786.0102539,83.23496246
784.9971924,83.23827362
783.9837036,83.24806213
783.0048828,83.23202515
781.9905396,83.30371857
781.0108643,83.26689911
779.9958496,83.32115173
779.0154419,83.3886261
777.9996948,83.31708527
776.9834595,83.3812027
776.0018921,83.34247589
774.9849243,83.27242279
774.0026245,83.23822784
772.9848633,83.23318481
772.0018921,83.27780151
770.9833984,83.22641754
769.9995728,83.13043213
769.0155029,83.13446808
767.9957886,83.1078186
767.0109253,83.13536835
765.9905396,83.15379333
765.0049438,83.06450653
763.9837646,83.13011169
762.9974365,83.07566833
762.0106812,83.01052094
760.9883423,83.0710144
760.0009766,83.07897186
759.0131226,83.17823792
757.9896851,83.22485352
757.0012207,83.25862885
756.0122681,83.34641266
754.9877319,83.36698914
753.9981079,83.40727997
753.0081787,83.44834137
751.9824219,83.51844788
750.9918213,83.60803986
750.0007324,83.65931702
749.0093384,83.71875763
748.0175781,83.70385742
746.9901123,83.87839508
745.9976196,83.95644379
745.0048218,84.01997375
744.0116577,84.12646484
742.982605,84.17158508
741.9887085,84.26872253
740.9945068,84.31664276
739.999939,84.40537262
739.0050659,84.49228668
738.0097656,84.51348114
737.0140991,84.57709503
735.9825439,84.59495544
734.9862061,84.58618164
733.989502,84.65021515
732.9925537,84.67657471
731.9951172,84.64897919
730.9974365,84.64415741
729.9993286,84.6859436
729.0009155,84.63360596
728.0021362,84.76551056
727.0031128,84.74578094
726.0036621,84.63161469
725.0038452,84.57206726
724.0037231,84.52898407
723.0032959,84.47357178
722.0024414,84.46684265
721.0013428,84.4239502
719.9998169,84.39531708
718.9979858,84.30904388
717.9957886,84.18327332
716.9932861,84.11940765
715.9904785,84.0846405
714.9872437,83.93746948
713.9837646,83.82444763
713.015686,83.6820755
712.0115356,83.56589508
711.007019,83.45639038
710.0022583,83.37728119
708.9970093,83.21537018
707.9914551,83.17302704
706.9855957,83.03511047
706.0153809,82.87593842
705.0088501,82.74153137
704.0020142,82.71326447
702.994812,82.50093842
701.9873047,82.34815979
701.0154419,82.30591583
700.0073242,82.27796173
698.9987793,82.12753296
697.9899902,82.07920074
697.0169678,81.88610077
696.0074463,81.83151245
694.9976196,81.72441864
693.9874878,81.60902405
693.0130615,81.56595612
692.0023193,81.39759064
690.991272,81.39025879
690.0159302,81.28951263
689.0042114,81.23201752
687.9921875,81.09500122
687.0159302,80.98269653
686.0032349,80.96019745
684.9902344,80.87771606
684.0130615,80.78347778
682.9994507,80.66023254
681.9854126,80.52598572
681.0073853,80.48597717
679.9927368,80.39930725
679.0140381,80.3192215
677.9988403,80.20230103
676.9832153,80.11576843
676.0036621,80.02688599
674.9874268,79.89965057
674.0072632,79.85660553
672.9904785,79.70449829
672.0096436,79.57728577
670.9922485,79.54920197
670.0108032,79.38525391
668.9927979,79.45401764
668.0106812,79.42100525
666.9920654,79.42241669
666.0094604,79.43776703
664.9901733,79.37402344
664.006958,79.32839966
662.9870605,79.27318573
662.0032959,79.25375366
660.9827271,79.22676849
659.9983521,79.23047638
659.0137329,79.20452118
657.9921875,79.12770081
657.007019,79.0929184
655.9849243,79.03596497
654.9990845,78.98959351
654.0130005,78.95025635
652.9900513,78.9747467
652.0032959,78.97255707
651.0163574,78.9752121
649.9924316,78.89253235
649.0048218,78.93743896
648.0170288,78.92871857
646.9922485,78.87767029
646.0037842,78.91768646
645.0151367,78.82807922
643.9894409,78.89108276
643.000061,78.83003998
642.010498,78.78791809
640.9840088,78.79296875
639.9938965,78.74185944
639.0033569,78.80547333
638.0126343,78.75592804
636.9849854,78.7067337
635.9936523,78.61985779
635.0020752,78.60046387
634.0102539,78.6047287
633.0180664,78.62193298
631.9889526,78.58084869
630.9962769,78.42611694
630.0032959,78.42795563
629.0100708,78.43566895
628.0164795,78.44845581
626.9858398,78.3516922
625.9918213,78.39575958
624.9974365,78.29553223
624.0028076,78.23059845
623.0079346,78.21102905
622.0127563,78.1335144
621.0172729,78.17079926
619.9846191,78.03167725
618.9886475,78.00467682
617.9923706,78.02394104
616.9958496,78.01114655
615.9989624,77.85897827
615.0018311,77.86128998
614.0045776,77.79577637
613.006897,77.78825378
612.0090332,77.70342255
611.0108032,77.6085968
610.0123901,77.64880371
609.0136719,77.60517883
608.0147705,77.4777832
607.0154419,77.40865326
606.0159912,77.42539978
605.0162354,77.36149597
604.0161133,77.37088013
603.0158691,77.30216217
602.0152588,77.26556396
601.0144653,77.15207672
600.0133667,77.15049744
599.0119629,77.0437851
598.010376,76.95872498
597.0084229,77.08724213
596.0062866,76.95986938
595.0039673,77.01236725
594.0012817,76.9509201
592.998291,76.80732727
591.9951782,76.84997559
590.9916992,76.83882904
589.987915,76.73800659
588.9840088,76.79855347
588.0169678,76.67370605
587.0125122,76.63308716
586.0078125,76.53392029
585.0027466,76.57479858
583.9974976,76.54499054
582.9920654,76.54214478
581.9862671,76.4719162
581.0175171,76.42752075
580.0112305,76.40893555
579.0047607,76.32646179
577.9979248,76.29839325
576.9909058,76.20141602
575.9836426,76.19903564
575.0134277,76.1203537
574.0056763,76.07595825
572.9976807,76.05106354
571.9893799,75.972435
571.0181885,75.93717194
570.0093994,75.83406067
569.0004272,75.82163239
567.9910889,75.73523712
566.9816284,75.67146301
566.0092773,75.64284515
564.9992676,75.6354599
563.9890137,75.53635406
563.0159302,75.4562149
562.005188,75.38556671
560.9942627,75.32653046
559.9829712,75.2195282
559.0089722,75.16857147
557.9972534,75.09526062
556.9853516,75.05101776
556.0106201,74.97736359
554.9981689,74.80673981
553.9855347,74.71316528
553.0100708,74.63570404
551.9968872,74.53020477
550.9835205,74.32313538
550.0073853,74.23126221
548.9935303,74.03379822
548.0169678,73.96560669
547.0026245,73.76991272
545.9880371,73.70057678
545.0108032,73.49292755
543.9957886,73.30786133
543.0180664,73.11749268
542.0025635,72.8896637
540.9868164,72.81083679
540.0083618,72.55212402
538.9921875,72.36358643
538.0133667,72.00082397
536.9967041,71.9006424
536.0174561,71.68079376
535.0001831,71.36264801
533.9828491,71.17234802
533.0029297,71.0454483
531.9851074,70.75912476
531.0047607,70.48139954
529.9864502,70.24528503
529.0056152,70.11791229
527.9868164,70.05072021
527.0055542,69.69766998
525.9863281,69.40314484
525.0046387,69.12662506
523.9849854,68.84104919
523.0028687,68.59751892
521.9827271,68.31645203
521.0001221,68.04914093
520.017395,67.86813354
518.996582,67.6699295
518.0134277,67.43157196
516.9922485,67.10331726
516.0085449,66.83988953
514.9868774,66.55900574
514.0028687,66.26071167
513.0185547,66.00439453
511.9961853,65.70632935
511.0115051,65.40790558
509.988739,65.18553162
509.0036621,64.91326904
508.01828,64.57682037
506.994873,64.28915405
506.0091248,63.94842911
504.9852295,63.69566345
503.9990845,63.3716774
503.0126953,63.09846115
501.9881897,62.77832413
501.0014038,62.46650314
500.0144043,62.13740158
498.9892883,61.80458069
498.0018311,61.50077057
497.0142517,61.28078079
495.9884644,60.99158096
495.0003967,60.58493423
494.012207,60.2529068
492.9857483,59.94491577
491.9971313,59.69441605
491.0083313,59.49180603
489.9812317,58.99939728
488.9920349,58.59366226
488.002594,58.3231163
487.0129089,57.97566223
485.9850159,57.49528885
484.9949951,57.08695602
484.0047302,56.76696777
483.0143127,56.37203598
481.9856262,55.99402237
480.994751,55.47647476
480.0037537,55.05781174
479.0125122,54.58790588
477.9829712,54.17858887
476.991394,53.80435181
475.9995728,53.34972
475.0075378,52.85467529
474.0153809,52.43896866
472.9847412,51.88344574
471.992157,51.51298523
470.9994202,51.07414627
470.0064392,50.695961
469.0132446,50.21002197
467.9816895,49.68912888
466.9881287,49.29749298
465.9943848,48.80371857
465.0004272,48.44173813
464.0063477,47.92401886
463.0119629,47.51073837
462.0174866,46.96967697
460.9845886,46.43851471
459.9896851,46.0707283
458.9945984,45.54302216
457.9993591,45.04377747
457.0038757,44.54050446
456.0082703,44.01605606
455.0124817,43.53094864
454.016449,43.03761673
452.9819031,42.57974243
451.9855957,42.05541992
450.9889221,41.48860168
449.992218,41.03381348
448.9953308,40.54439545
447.99823,40.08195877
447.000946,39.58703995
446.003418,38.98181534
445.0057678,38.45614243
444.0079651,37.95993805
443.0098877,37.4210434
442.0116882,36.88084793
441.0133362,36.3486824
440.0147705,35.77352905
439.0160522,35.25233841
438.0170898,34.87959671
437.0180359,34.28311157
436.0187988,33.71113968
434.9808044,33.09067917
433.9812622,32.56256104
432.9814453,32.01534271
431.9814453,31.454813
430.9812317,30.9442749
429.980896,30.30593681
429.0189209,29.72970581
428.0181885,29.16299629
427.0173645,28.63563347
426.0163574,28.09543991
425.0151367,27.5181179
424.0137939,26.92450905
423.0122375,26.42117119
422.0105286,25.92265892
421.008606,25.42067146
420.0065613,24.91926003
419.0043335,24.36429977
418.0019531,23.8827095
416.9993286,23.43576622
415.9966125,22.93972588
414.9937134,22.4454174
413.9905701,21.92538643
412.9873657,21.45061874
411.9839172,20.96444321
411.0189514,20.56981659
410.0152283,20.0647049
409.0112915,19.54196548
408.0072327,19.04195786
407.0029602,18.50094795
405.9985352,18.03540039
404.9939575,17.49112892
403.9892578,16.95661545
402.9843445,16.40858269
402.0179138,15.90812492
401.0126953,15.42679691
400.0072937,14.88907528
